timestamp,ch1_ecg_V
-0.086082,0.00001133
-0.085082,0.00002159
-0.084082,-0.00000674
-0.083082,0.00001689
-0.082082,0.00001331
-0.081082,-0.00001595
-0.080082,0.00003594
-0.079082,0.00001148
-0.078082,-0.00001273
-0.077082,0.00005272
-0.076082,0.00003195
-0.075082,-0.00001149
-0.074082,0.00000696
-0.073082,-0.00002937
-0.072082,0.00002646
-0.071082,-0.00003882
-0.070082,-0.00002749
-0.069082,0.00002336
-0.068082,-0.00002399
-0.067082,-0.00003881
-0.066082,-0.00000381
-0.065082,0.00004378
-0.064082,0.00006573
-0.063082,-0.00006097
-0.062082,-0.00008138
-0.061082,-0.00001046
-0.060082,0.00000874
-0.059082,0.00003938
-0.058082,0.00004935
-0.057082,-0.00000419
-0.056082,-0.00002574
-0.055082,-0.00003488
-0.054082,0.00000979
-0.053082,-0.00002034
-0.052082,-0.00006465
-0.051082,0.00003455
-0.050082,0.00002957
-0.049082,-0.00003739
-0.048082,0.00001074
-0.047082,-0.00002875
-0.046082,-0.00001481
-0.045082,0.00001301
-0.044082,0.00002310
-0.043082,0.00003112
-0.042082,-0.00000382
-0.041082,-0.00001461
-0.040082,0.00002470
-0.039082,-0.00004168
-0.038082,0.00003672
-0.037082,0.00003716
-0.036082,0.00000323
-0.035082,-0.00001946
-0.034082,0.00002154
-0.033082,0.00003707
-0.032082,-0.00000249
-0.031082,-0.00006948
-0.030082,0.00003472
-0.029082,0.00003672
-0.028082,-0.00002036
-0.027082,-0.00002576
-0.026082,-0.00001127
-0.025082,-0.00001026
-0.024082,-0.00000267
-0.023082,0.00002628
-0.022082,0.00003683
-0.021082,0.00001885
-0.020082,-0.00002476
-0.019082,-0.00002124
-0.018082,-0.00003544
-0.017082,0.00003944
-0.016082,0.00004636
-0.015082,-0.00000281
-0.014082,0.00005834
-0.013082,-0.00003217
-0.012082,-0.00001223
-0.011082,-0.00001417
-0.010082,0.00003415
-0.009082,0.00001556
-0.008082,0.00003702
-0.007082,-0.00000199
-0.006082,-0.00006333
-0.005082,-0.00001805
-0.004082,-0.00004414
-0.003082,0.00001772
-0.002082,-0.00003058
-0.001082,-0.00001849
-0.000082,-0.00001165
0.000918,-0.00005711
0.001918,0.00002517
0.002918,-0.00002054
0.003918,-0.00003197
0.004918,-0.00002628
0.005918,-0.00000752
0.006918,0.00007082
0.007918,0.00000200
0.008918,-0.00005890
0.009918,-0.00002283
0.010918,0.00000856
0.011918,0.00003506
0.012918,0.00002771
-0.062105,-0.00000920
-0.061105,0.00008900
-0.060105,0.00001842
-0.059105,-0.00000906
-0.058105,-0.00001634
-0.057105,-0.00000701
-0.056105,-0.00005198
-0.055105,0.00002015
-0.054105,0.00002448
-0.053105,-0.00001261
-0.052105,-0.00000465
-0.051105,0.00004382
-0.050105,-0.00000915
-0.049105,0.00000756
-0.048105,-0.00000510
-0.047105,0.00002311
-0.046105,-0.00000748
-0.045105,0.00003219
-0.044105,0.00000135
-0.043105,0.00002671
-0.042105,0.00006031
-0.041105,0.00002277
-0.040105,0.00005012
-0.039105,0.00002403
-0.038105,0.00002906
-0.037105,0.00004256
-0.036105,-0.00003128
-0.035105,0.00001269
-0.034105,-0.00001671
-0.033105,-0.00000164
-0.032105,0.00001694
-0.031105,0.00003417
-0.030105,0.00003851
-0.029105,0.00003053
-0.028105,0.00003578
-0.027105,0.00000162
-0.026105,0.00001301
-0.025105,0.00003792
-0.024105,-0.00000755
-0.023105,0.00000591
-0.022105,0.00000566
-0.021105,0.00000740
-0.020105,0.00002501
-0.019105,-0.00000157
-0.018105,0.00002714
-0.017105,0.00009316
-0.016105,0.00002972
-0.015105,0.00010778
-0.014105,0.00004597
-0.013105,0.00002386
-0.012105,0.00000373
-0.011105,0.00005473
-0.010105,0.00007169
-0.009105,0.00009997
-0.008105,0.00004314
-0.007105,0.00000196
-0.006105,0.00007373
-0.005105,-0.00001701
-0.004105,0.00003385
-0.003105,0.00010398
-0.002105,0.00003611
-0.001105,0.00005911
-0.000105,0.00005542
0.000895,0.00006354
0.001895,0.00007410
0.002895,0.00008610
0.003895,0.00013090
0.004895,0.00005560
0.005895,0.00004850
0.006895,0.00008288
0.007895,0.00008068
0.008895,0.00007351
0.009895,0.00008477
0.010895,0.00008170
0.011895,0.00007871
0.012895,0.00005615
0.013895,0.00008987
0.014895,0.00006540
0.015895,0.00010902
0.016895,0.00008901
0.017895,0.00005776
0.018895,0.00010238
0.019895,0.00006540
0.020895,0.00005574
0.021895,0.00005258
0.022895,0.00003948
0.023895,0.00005148
0.024895,0.00009849
0.025895,0.00009024
0.026895,0.00004648
0.027895,0.00004582
0.028895,0.00007783
0.029895,0.00010760
0.030895,0.00009027
0.031895,0.00010736
0.032895,0.00007677
0.033895,0.00005142
0.034895,0.00012414
0.035895,0.00004349
0.036895,0.00005763
-0.032899,0.00009960
-0.031899,0.00004747
-0.030899,0.00003778
-0.029899,0.00006973
-0.028899,0.00010502
-0.027899,0.00004762
-0.026899,0.00004322
-0.025899,0.00004564
-0.024899,0.00008075
-0.023899,0.00006576
-0.022899,0.00006010
-0.021899,0.00009788
-0.020899,0.00003838
-0.019899,0.00002653
-0.018899,0.00006231
-0.017899,0.00001738
-0.016899,0.00000701
-0.015899,0.00008856
-0.014899,0.00009967
-0.013899,0.00005084
-0.012899,0.00007183
-0.011899,0.00004039
-0.010899,0.00005500
-0.009899,0.00002442
-0.008899,-0.00000009
-0.007899,0.00002607
-0.006899,-0.00001210
-0.005899,0.00007817
-0.004899,0.00003448
-0.003899,0.00001995
-0.002899,0.00005487
-0.001899,0.00004852
-0.000899,0.00006185
0.000101,0.00002991
0.001101,0.00002202
0.002101,0.00002221
0.003101,0.00005043
0.004101,-0.00001320
0.005101,0.00003533
0.006101,-0.00004584
0.007101,-0.00000646
0.008101,-0.00002648
0.009101,0.00002669
0.010101,-0.00001944
0.011101,-0.00003033
0.012101,0.00000791
0.013101,0.00005282
0.014101,0.00002698
0.015101,0.00002484
0.016101,0.00001523
0.017101,-0.00001701
0.018101,0.00002046
0.019101,0.00001945
0.020101,0.00003501
0.021101,-0.00001044
0.022101,0.00002526
0.023101,-0.00004510
0.024101,-0.00000404
0.025101,0.00000860
0.026101,0.00000619
0.027101,0.00007001
0.028101,0.00001434
0.029101,0.00002292
0.030101,-0.00000813
0.031101,-0.00000586
0.032101,0.00003250
0.033101,-0.00000668
0.034101,0.00003338
0.035101,0.00002182
0.036101,-0.00006031
0.037101,0.00002704
0.038101,0.00003295
0.039101,-0.00000453
0.040101,-0.00000462
0.041101,0.00000456
0.042101,-0.00002000
0.043101,0.00002680
0.044101,0.00000635
0.045101,-0.00000257
0.046101,0.00000790
0.047101,0.00004857
0.048101,-0.00002792
0.049101,-0.00004393
0.050101,-0.00002105
0.051101,0.00000726
0.052101,-0.00000032
0.053101,-0.00001839
0.054101,0.00001492
0.055101,-0.00002385
0.056101,-0.00001088
0.057101,0.00000871
0.058101,-0.00000686
0.059101,-0.00006225
0.060101,-0.00003359
0.061101,0.00001531
0.062101,0.00001945
0.063101,-0.00000697
0.064101,-0.00001691
0.065101,0.00001614
0.066101,0.00002359
0.000036,-0.00001857
0.001036,0.00000411
0.002036,0.00000969
0.003036,-0.00003030
0.004036,0.00006816
0.005036,0.00002662
0.006036,0.00004857
0.007036,-0.00004244
0.008036,0.00000038
0.009036,0.00005685
0.010036,0.00000252
0.011036,-0.00002554
0.012036,0.00001502
0.013036,0.00001947
0.014036,-0.00003508
0.015036,0.00003724
0.016036,0.00001707
0.017036,-0.00005899
0.018036,0.00000794
0.019036,0.00004237
0.020036,0.00006031
0.021036,-0.00003574
0.022036,0.00000426
0.023036,-0.00000946
0.024036,-0.00000029
0.025036,-0.00000728
0.026036,-0.00003332
0.027036,-0.00007468
0.028036,0.00000354
0.029036,0.00002729
0.030036,-0.00001353
0.031036,0.00003653
0.032036,0.00001925
0.033036,-0.00008151
0.034036,0.00003745
0.035036,0.00001923
0.036036,0.00000544
0.037036,-0.00005200
0.038036,-0.00002070
0.039036,0.00001013
0.040036,0.00000613
0.041036,0.00000306
0.042036,0.00003046
0.043036,0.00001256
0.044036,-0.00009638
0.045036,-0.00002669
0.046036,0.00005799
0.047036,-0.00003946
0.048036,-0.00000531
0.049036,0.00001936
0.050036,0.00004910
0.051036,0.00002144
0.052036,0.00001205
0.053036,-0.00004541
0.054036,0.00001860
0.055036,0.00004203
0.056036,0.00001597
0.057036,-0.00001389
0.058036,-0.00002355
0.059036,-0.00005101
0.060036,-0.00000560
0.061036,-0.00007916
0.062036,0.00000720
0.063036,0.00000650
0.064036,0.00000606
0.065036,-0.00001841
0.066036,-0.00000037
0.067036,0.00001113
0.068036,-0.00007015
0.069036,0.00007426
0.070036,-0.00000086
0.071036,0.00001357
0.072036,-0.00006779
0.073036,0.00000117
0.074036,-0.00001341
0.075036,0.00000005
0.076036,0.00001048
0.077036,0.00001740
0.078036,0.00006162
0.079036,0.00003933
0.080036,0.00006416
0.081036,0.00008551
0.082036,0.00011504
0.083036,0.00009095
0.084036,0.00015441
0.085036,0.00024666
0.086036,0.00026965
0.087036,0.00032573
0.088036,0.00041394
0.089036,0.00048560
0.090036,0.00056252
0.091036,0.00065918
0.092036,0.00070172
0.093036,0.00083172
0.094036,0.00084684
0.095036,0.00101782
0.096036,0.00107756
0.097036,0.00106825
0.098036,0.00104559
0.099036,0.00120089
0.034075,0.00116404
0.035075,0.00118669
0.036075,0.00112276
0.037075,0.00106074
0.038075,0.00104048
0.039075,0.00096646
0.040075,0.00090216
0.041075,0.00074506
0.042075,0.00059137
0.043075,0.00056915
0.044075,0.00041824
0.045075,0.00033518
0.046075,0.00026243
0.047075,0.00019703
0.048075,0.00006888
0.049075,0.00003489
0.050075,-0.00004730
0.051075,-0.00006497
0.052075,-0.00015964
0.053075,-0.00017352
0.054075,-0.00020724
0.055075,-0.00019345
0.056075,-0.00022378
0.057075,-0.00027549
0.058075,-0.00026107
0.059075,-0.00019773
0.060075,-0.00026512
0.061075,-0.00025586
0.062075,-0.00028236
0.063075,-0.00027590
0.064075,-0.00017430
0.065075,-0.00021958
0.066075,-0.00022753
0.067075,-0.00020465
0.068075,-0.00022528
0.069075,-0.00014855
0.070075,-0.00017402
0.071075,-0.00012974
0.072075,-0.00012895
0.073075,-0.00008593
0.074075,-0.00009944
0.075075,-0.00006156
0.076075,-0.00004519
0.077075,-0.00005186
0.078075,-0.00000634
0.079075,-0.00004515
0.080075,-0.00004007
0.081075,0.00000787
0.082075,-0.00001530
0.083075,0.00005178
0.084075,0.00001354
0.085075,0.00004777
0.086075,-0.00000203
0.087075,0.00004070
0.088075,0.00003993
0.089075,0.00006534
0.090075,0.00004601
0.091075,0.00007042
0.092075,0.00006121
0.093075,0.00001654
0.094075,0.00003386
0.095075,0.00002657
0.096075,0.00002436
0.097075,0.00006638
0.098075,0.00001270
0.099075,0.00004846
0.100075,0.00008805
0.101075,0.00009006
0.102075,0.00008953
0.103075,0.00009034
0.104075,0.00007233
0.105075,0.00005422
0.106075,-0.00000084
0.107075,0.00004503
0.108075,0.00009165
0.109075,0.00010493
0.110075,0.00007879
0.111075,0.00012937
0.112075,0.00009637
0.113075,0.00012141
0.114075,0.00006335
0.115075,0.00004907
0.116075,0.00006810
0.117075,0.00012352
0.118075,0.00017537
0.119075,0.00010795
0.120075,0.00008485
0.121075,0.00007582
0.122075,0.00013641
0.123075,0.00008134
0.124075,0.00012145
0.125075,0.00016157
0.126075,0.00010536
0.127075,0.00021274
0.128075,0.00015985
0.129075,0.00011447
0.130075,0.00011428
0.131075,0.00014683
0.132075,0.00014686
0.133075,0.00011004
0.069404,0.00020034
0.070404,0.00020159
0.071404,0.00016099
0.072404,0.00013407
0.073404,0.00021351
0.074404,0.00021855
0.075404,0.00021469
0.076404,0.00016083
0.077404,0.00013785
0.078404,0.00020738
0.079404,0.00021598
0.080404,0.00021683
0.081404,0.00016541
0.082404,0.00017214
0.083404,0.00021550
0.084404,0.00019439
0.085404,0.00019440
0.086404,0.00017949
0.087404,0.00024301
0.088404,0.00020910
0.089404,0.00014274
0.090404,0.00013844
0.091404,0.00020398
0.092404,0.00021549
0.093404,0.00017824
0.094404,0.00022661
0.095404,0.00020947
0.096404,0.00016497
0.097404,0.00019775
0.098404,0.00023362
0.099404,0.00020624
0.100404,0.00019180
0.101404,0.00017741
0.102404,0.00023988
0.103404,0.00019519
0.104404,0.00015722
0.105404,0.00021784
0.106404,0.00021887
0.107404,0.00022553
0.108404,0.00019641
0.109404,0.00020495
0.110404,0.00019356
0.111404,0.00020394
0.112404,0.00017735
0.113404,0.00024635
0.114404,0.00013340
0.115404,0.00024028
0.116404,0.00025534
0.117404,0.00023671
0.118404,0.00022658
0.119404,0.00016639
0.120404,0.00022634
0.121404,0.00023839
0.122404,0.00015093
0.123404,0.00020868
0.124404,0.00025145
0.125404,0.00013996
0.126404,0.00019160
0.127404,0.00018974
0.128404,0.00014846
0.129404,0.00023168
0.130404,0.00017607
0.131404,0.00018294
0.132404,0.00011886
0.133404,0.00018362
0.134404,0.00018939
0.135404,0.00017675
0.136404,0.00016332
0.137404,0.00013309
0.138404,0.00015320
0.139404,0.00018889
0.140404,0.00009176
0.141404,0.00011805
0.142404,0.00011127
0.143404,0.00014277
0.144404,0.00004618
0.145404,0.00008843
0.146404,0.00011354
0.147404,0.00008899
0.148404,0.00008164
0.149404,0.00010203
0.150404,0.00011884
0.151404,0.00012491
0.152404,0.00006112
0.153404,0.00006414
0.154404,0.00014204
0.155404,0.00010528
0.156404,0.00010249
0.157404,0.00005879
0.158404,0.00005151
0.159404,0.00005612
0.160404,0.00004416
0.161404,0.00006046
0.162404,0.00006575
0.163404,0.00006800
0.164404,0.00006275
0.165404,0.00005462
0.166404,0.00011913
0.167404,0.00004465
0.168404,0.00006698
0.106917,0.00006038
0.107917,0.00007172
0.108917,0.00005662
0.109917,0.00006987
0.110917,0.00000165
0.111917,0.00005255
0.112917,0.00002970
0.113917,0.00007233
0.114917,0.00001426
0.115917,0.00001559
0.116917,0.00005307
0.117917,0.00002096
0.118917,0.00008325
0.119917,0.00000413
0.120917,0.00001490
0.121917,0.00002078
0.122917,-0.00000460
0.123917,0.00000284
0.124917,-0.00000667
0.125917,0.00001141
0.126917,0.00002281
0.127917,-0.00002434
0.128917,-0.00003435
0.129917,-0.00002277
0.130917,0.00004344
0.131917,0.00008341
0.132917,0.00000138
0.133917,0.00000516
0.134917,0.00005281
0.135917,-0.00000507
0.136917,0.00002850
0.137917,0.00000519
0.138917,0.00000947
0.139917,0.00003661
0.140917,0.00001345
0.141917,0.00003431
0.142917,0.00006219
0.143917,-0.00003118
0.144917,-0.00000701
0.145917,0.00000214
0.146917,0.00004690
0.147917,0.00000285
0.148917,-0.00001479
0.149917,0.00002474
0.150917,-0.00000154
0.151917,0.00003708
0.152917,0.00003090
0.153917,0.00000254
0.154917,0.00002280
0.155917,0.00003291
0.156917,0.00005181
0.157917,0.00001767
0.158917,-0.00002097
0.159917,0.00001635
0.160917,-0.00000072
0.161917,0.00002501
0.162917,0.00002420
0.163917,0.00001963
0.164917,-0.00000631
0.165917,-0.00003064
0.166917,0.00000902
0.167917,0.00004106
0.168917,-0.00010013
0.169917,-0.00001159
0.170917,0.00003017
0.171917,-0.00003977
0.172917,-0.00003061
0.173917,-0.00002944
0.174917,0.00001434
0.175917,-0.00000727
0.176917,0.00002864
0.177917,0.00002884
0.178917,0.00000352
0.179917,0.00004785
0.180917,0.00001774
0.181917,-0.00002564
0.182917,-0.00001217
0.183917,0.00001619
0.184917,-0.00000059
0.185917,0.00007610
0.186917,0.00000676
0.187917,-0.00006260
0.188917,0.00000966
0.189917,0.00000975
0.190917,0.00001060
0.191917,0.00003338
0.192917,0.00002076
0.193917,0.00001405
0.194917,-0.00001228
0.195917,-0.00002942
0.196917,-0.00003070
0.197917,0.00002324
0.198917,-0.00001321
0.199917,-0.00002252
0.200917,0.00000074
0.201917,-0.00002580
0.202917,-0.00003783
0.203917,0.00000053
0.204917,0.00003891
0.205917,0.00002533
0.138679,0.00002133
0.139679,0.00008363
0.140679,-0.00000549
0.141679,0.00002878
0.142679,0.00003295
0.143679,0.00000925
0.144679,-0.00002100
0.145679,0.00000486
0.146679,-0.00001381
0.147679,0.00000801
0.148679,-0.00001667
0.149679,-0.00000812
0.150679,0.00001410
0.151679,0.00000522
0.152679,0.00000458
0.153679,0.00002209
0.154679,0.00001082
0.155679,0.00000323
0.156679,0.00002857
0.157679,0.00004744
0.158679,-0.00002652
0.159679,0.00000136
0.160679,0.00000575
0.161679,0.00004565
0.162679,0.00006171
0.163679,0.00000696
0.164679,-0.00000615
0.165679,-0.00004190
0.166679,-0.00001925
0.167679,0.00000898
0.168679,0.00000425
0.169679,0.00006194
0.170679,0.00002697
0.171679,-0.00001667
0.172679,0.00000090
0.173679,0.00003644
0.174679,-0.00002116
0.175679,0.00001505
0.176679,0.00000931
0.177679,0.00001580
0.178679,0.00002090
0.179679,0.00001070
0.180679,0.00003571
0.181679,-0.00004179
0.182679,-0.00004427
0.183679,-0.00003931
0.184679,0.00003542
0.185679,0.00003533
0.186679,0.00000162
0.187679,-0.00001245
0.188679,0.00000555
0.189679,-0.00001557
0.190679,-0.00003659
0.191679,-0.00000882
0.192679,-0.00000316
0.193679,0.00002253
0.194679,-0.00001030
0.195679,0.00002444
0.196679,0.00003315
0.197679,-0.00000957
0.198679,0.00004873
0.199679,-0.00001834
0.200679,-0.00002322
0.201679,0.00002098
0.202679,-0.00003172
0.203679,0.00001423
0.204679,-0.00002330
0.205679,-0.00005132
0.206679,-0.00008774
0.207679,-0.00002422
0.208679,-0.00001957
0.209679,-0.00002356
0.210679,-0.00000052
0.211679,0.00005285
0.212679,-0.00004640
0.213679,-0.00002122
0.214679,-0.00000569
0.215679,0.00001599
0.216679,0.00001018
0.217679,-0.00000196
0.218679,0.00000415
0.219679,0.00002646
0.220679,-0.00006007
0.221679,-0.00001929
0.222679,-0.00004553
0.223679,0.00003289
0.224679,-0.00004247
0.225679,-0.00004451
0.226679,0.00002006
0.227679,-0.00000035
0.228679,0.00000243
0.229679,0.00005476
0.230679,0.00002909
0.231679,0.00002706
0.232679,0.00002213
0.233679,-0.00002489
0.234679,-0.00002956
0.235679,-0.00001962
0.236679,0.00002348
0.237679,-0.00004287
0.170524,-0.00001633
0.171524,-0.00000255
0.172524,-0.00004190
0.173524,0.00001025
0.174524,0.00005227
0.175524,0.00001829
0.176524,0.00002369
0.177524,0.00004290
0.178524,0.00000509
0.179524,-0.00003388
0.180524,-0.00000468
0.181524,0.00001986
0.182524,-0.00000240
0.183524,-0.00001583
0.184524,0.00002594
0.185524,0.00000012
0.186524,0.00000415
0.187524,-0.00005022
0.188524,0.00000284
0.189524,0.00000990
0.190524,-0.00001160
0.191524,0.00002248
0.192524,0.00003838
0.193524,-0.00000504
0.194524,-0.00000342
0.195524,0.00000406
0.196524,-0.00003486
0.197524,-0.00002495
0.198524,-0.00000214
0.199524,-0.00001724
0.200524,-0.00000155
0.201524,0.00004465
0.202524,-0.00002343
0.203524,0.00003935
0.204524,0.00005517
0.205524,-0.00000605
0.206524,-0.00003152
0.207524,-0.00004515
0.208524,0.00001456
0.209524,0.00004171
0.210524,0.00000120
0.211524,-0.00003319
0.212524,-0.00005625
0.213524,0.00006929
0.214524,0.00004568
0.215524,-0.00001325
0.216524,0.00001147
0.217524,-0.00002691
0.218524,0.00006225
0.219524,0.00002919
0.220524,0.00001004
0.221524,0.00000251
0.222524,-0.00004972
0.223524,-0.00001281
0.224524,-0.00001980
0.225524,0.00002708
0.226524,-0.00000510
0.227524,-0.00000154
0.228524,0.00003403
0.229524,-0.00001057
0.230524,-0.00000776
0.231524,0.00000138
0.232524,0.00002204
0.233524,0.00002170
0.234524,-0.00005035
0.235524,-0.00002346
0.236524,0.00001332
0.237524,0.00001726
0.238524,0.00000081
0.239524,-0.00000653
0.240524,-0.00006877
0.241524,0.00003582
0.242524,-0.00001487
0.243524,-0.00004784
0.244524,-0.00002356
0.245524,0.00001571
0.246524,-0.00000867
0.247524,-0.00002286
0.248524,-0.00003883
0.249524,-0.00000134
0.250524,-0.00002292
0.251524,-0.00001550
0.252524,-0.00002069
0.253524,0.00001102
0.254524,0.00003477
0.255524,-0.00003408
0.256524,-0.00001644
0.257524,-0.00000872
0.258524,-0.00002445
0.259524,0.00000717
0.260524,-0.00004934
0.261524,-0.00002095
0.262524,-0.00001127
0.263524,-0.00000413
0.264524,0.00000564
0.265524,0.00001045
0.266524,0.00000946
0.267524,0.00004243
0.268524,0.00000333
0.269524,-0.00000568
0.217168,-0.00000810
0.218168,-0.00002266
0.219168,0.00000624
0.220168,0.00001910
0.221168,0.00006068
0.222168,-0.00000674
0.223168,0.00006383
0.224168,-0.00004936
0.225168,-0.00005981
0.226168,-0.00004706
0.227168,-0.00001880
0.228168,0.00006863
0.229168,-0.00001775
0.230168,0.00001270
0.231168,-0.00002121
0.232168,-0.00002807
0.233168,0.00003462
0.234168,0.00001649
0.235168,0.00000466
0.236168,0.00003018
0.237168,0.00000878
0.238168,0.00000465
0.239168,-0.00001359
0.240168,-0.00002316
0.241168,-0.00006358
0.242168,0.00001403
0.243168,0.00002205
0.244168,0.00002343
0.245168,-0.00005021
0.246168,0.00001451
0.247168,0.00003328
0.248168,0.00001741
0.249168,0.00002772
0.250168,-0.00001391
0.251168,0.00005131
0.252168,0.00003494
0.253168,0.00005817
0.254168,0.00003661
0.255168,-0.00005102
0.256168,-0.00003283
0.257168,0.00002578
0.258168,-0.00002616
0.259168,0.00002843
0.260168,-0.00002877
0.261168,0.00000171
0.262168,-0.00003160
0.263168,-0.00000850
0.264168,0.00003426
0.265168,-0.00001407
0.266168,0.00003767
0.267168,-0.00000557
0.268168,0.00000068
0.269168,0.00003207
0.270168,0.00000558
0.271168,-0.00000830
0.272168,-0.00000030
0.273168,0.00002469
0.274168,0.00001286
0.275168,0.00002717
0.276168,0.00007239
0.277168,-0.00000254
0.278168,0.00000564
0.279168,-0.00000903
0.280168,0.00003444
0.281168,0.00003653
0.282168,0.00002110
0.283168,-0.00002655
0.284168,0.00006323
0.285168,0.00002656
0.286168,-0.00004309
0.287168,0.00004906
0.288168,0.00007040
0.289168,0.00006418
0.290168,0.00004294
0.291168,0.00006471
0.292168,0.00002438
0.293168,0.00004150
0.294168,0.00007762
0.295168,0.00006432
0.296168,-0.00001085
0.297168,0.00000669
0.298168,0.00007640
0.299168,0.00003183
0.300168,0.00009249
0.301168,0.00003826
0.302168,0.00003242
0.303168,0.00002984
0.304168,-0.00000212
0.305168,-0.00001896
0.306168,0.00001204
0.307168,0.00007992
0.308168,0.00004108
0.309168,0.00008153
0.310168,0.00007053
0.311168,0.00008475
0.312168,0.00007652
0.313168,0.00003187
0.314168,0.00009105
0.315168,0.00003206
0.316168,0.00005659
0.256753,0.00005049
0.257753,0.00008241
0.258753,0.00004115
0.259753,0.00007753
0.260753,0.00007580
0.261753,0.00010928
0.262753,0.00003304
0.263753,0.00010370
0.264753,0.00005488
0.265753,0.00004275
0.266753,0.00005464
0.267753,0.00008478
0.268753,0.00003501
0.269753,0.00011490
0.270753,0.00009102
0.271753,0.00007677
0.272753,0.00005695
0.273753,0.00010682
0.274753,0.00008610
0.275753,0.00009845
0.276753,0.00010378
0.277753,0.00008265
0.278753,0.00011074
0.279753,0.00008709
0.280753,-0.00000307
0.281753,0.00009461
0.282753,0.00005759
0.283753,0.00005498
0.284753,0.00005367
0.285753,0.00012015
0.286753,-0.00001153
0.287753,0.00007836
0.288753,0.00008917
0.289753,0.00004808
0.290753,0.00002078
0.291753,0.00010482
0.292753,0.00007606
0.293753,0.00011797
0.294753,0.00008521
0.295753,0.00007646
0.296753,0.00000770
0.297753,0.00004633
0.298753,0.00007369
0.299753,0.00000933
0.300753,0.00007558
0.301753,-0.00000378
0.302753,0.00005997
0.303753,0.00004151
0.304753,0.00005392
0.305753,0.00000953
0.306753,0.00005641
0.307753,0.00003465
0.308753,-0.00000324
0.309753,0.00004595
0.310753,-0.00000341
0.311753,0.00000504
0.312753,0.00002296
0.313753,0.00001709
0.314753,0.00001293
0.315753,0.00006478
0.316753,0.00003883
0.317753,0.00001132
0.318753,0.00003651
0.319753,-0.00001351
0.320753,0.00001265
0.321753,-0.00001920
0.322753,0.00001558
0.323753,0.00002279
0.324753,0.00002341
0.325753,-0.00002188
0.326753,0.00004920
0.327753,0.00003901
0.328753,0.00002602
0.329753,0.00007834
0.330753,0.00002776
0.331753,0.00001782
0.332753,0.00002300
0.333753,0.00004331
0.334753,-0.00004747
0.335753,-0.00000935
0.336753,-0.00000643
0.337753,-0.00001776
0.338753,0.00005889
0.339753,-0.00000755
0.340753,0.00000539
0.341753,-0.00000632
0.342753,-0.00001495
0.343753,0.00000803
0.344753,0.00001501
0.345753,0.00002519
0.346753,0.00002248
0.347753,-0.00007830
0.348753,0.00000190
0.349753,0.00005473
0.350753,0.00003244
0.351753,0.00003260
0.352753,0.00004160
0.353753,0.00001100
0.354753,-0.00000944
0.355753,0.00001345
0.288759,-0.00000260
0.289759,-0.00000630
0.290759,-0.00001557
0.291759,-0.00003238
0.292759,0.00005847
0.293759,0.00003044
0.294759,0.00007639
0.295759,-0.00000779
0.296759,0.00005374
0.297759,0.00000572
0.298759,-0.00006007
0.299759,-0.00005259
0.300759,0.00002340
0.301759,0.00000611
0.302759,0.00000942
0.303759,0.00002643
0.304759,-0.00000399
0.305759,0.00000632
0.306759,-0.00005198
0.307759,-0.00003239
0.308759,-0.00001326
0.309759,-0.00007165
0.310759,0.00000722
0.311759,0.00000846
0.312759,0.00000742
0.313759,-0.00000067
0.314759,-0.00001555
0.315759,-0.00007551
0.316759,-0.00000643
0.317759,0.00000261
0.318759,0.00000659
0.319759,0.00005898
0.320759,-0.00000597
0.321759,0.00000418
0.322759,-0.00003371
0.323759,-0.00004627
0.324759,0.00000146
0.325759,-0.00002828
0.326759,-0.00004638
0.327759,0.00000379
0.328759,0.00002732
0.329759,-0.00001522
0.330759,-0.00000574
0.331759,-0.00001966
0.332759,0.00002327
0.333759,-0.00001613
0.334759,0.00000192
0.335759,0.00002437
0.336759,-0.00002023
0.337759,-0.00001939
0.338759,-0.00001785
0.339759,0.00003535
0.340759,0.00001766
0.341759,0.00002516
0.342759,-0.00005392
0.343759,0.00001429
0.344759,0.00002912
0.345759,0.00001408
0.346759,0.00000297
0.347759,0.00002190
0.348759,0.00000012
0.349759,0.00002862
0.350759,-0.00002604
0.351759,-0.00006083
0.352759,-0.00002180
0.353759,-0.00003800
0.354759,-0.00000594
0.355759,0.00006942
0.356759,0.00005344
0.357759,0.00000290
0.358759,0.00001379
0.359759,-0.00001228
0.360759,-0.00002322
0.361759,-0.00003812
0.362759,-0.00000522
0.363759,-0.00001843
0.364759,-0.00003979
0.365759,-0.00005086
0.366759,-0.00000065
0.367759,0.00003069
0.368759,-0.00005932
0.369759,0.00001303
0.370759,-0.00000665
0.371759,0.00005269
0.372759,-0.00003339
0.373759,-0.00001176
0.374759,-0.00006580
0.375759,0.00000449
0.376759,-0.00000993
0.377759,0.00001418
0.378759,-0.00002044
0.379759,0.00003749
0.380759,-0.00000497
0.381759,0.00003336
0.382759,0.00003694
0.383759,-0.00001244
0.384759,0.00000980
0.385759,0.00003529
0.386759,0.00002867
0.387759,0.00003784
0.320797,-0.00000030
0.321797,0.00004850
0.322797,-0.00004320
0.323797,0.00001097
0.324797,0.00002626
0.325797,0.00004922
0.326797,-0.00000065
0.327797,-0.00001897
0.328797,0.00003544
0.329797,-0.00001102
0.330797,0.00000707
0.331797,0.00000247
0.332797,0.00001779
0.333797,-0.00000640
0.334797,0.00010460
0.335797,0.00005878
0.336797,0.00011627
0.337797,0.00012897
0.338797,0.00020155
0.339797,0.00021728
0.340797,0.00033370
0.341797,0.00033309
0.342797,0.00046344
0.343797,0.00050037
0.344797,0.00061225
0.345797,0.00069588
0.346797,0.00079248
0.347797,0.00087177
0.348797,0.00097366
0.349797,0.00109398
0.350797,0.00106387
0.351797,0.00115669
0.352797,0.00118942
0.353797,0.00121927
0.354797,0.00119864
0.355797,0.00116086
0.356797,0.00112693
0.357797,0.00101408
0.358797,0.00098608
0.359797,0.00083531
0.360797,0.00077557
0.361797,0.00073205
0.362797,0.00057565
0.363797,0.00048647
0.364797,0.00037268
0.365797,0.00029552
0.366797,0.00024032
0.367797,0.00012152
0.368797,0.00006826
0.369797,-0.00000529
0.370797,-0.00003936
0.371797,-0.00014415
0.372797,-0.00020003
0.373797,-0.00017460
0.374797,-0.00022083
0.375797,-0.00022437
0.376797,-0.00022032
0.377797,-0.00023293
0.378797,-0.00027468
0.379797,-0.00022876
0.380797,-0.00022534
0.381797,-0.00026448
0.382797,-0.00026478
0.383797,-0.00028160
0.384797,-0.00021991
0.385797,-0.00023697
0.386797,-0.00020248
0.387797,-0.00014570
0.388797,-0.00014489
0.389797,-0.00017766
0.390797,-0.00011962
0.391797,-0.00013637
0.392797,-0.00008832
0.393797,-0.00004518
0.394797,-0.00007886
0.395797,-0.00006171
0.396797,-0.00007412
0.397797,-0.00004204
0.398797,-0.00000670
0.399797,0.00000343
0.400797,0.00002805
0.401797,-0.00002300
0.402797,0.00002112
0.403797,-0.00000903
0.404797,0.00003122
0.405797,-0.00001322
0.406797,0.00004443
0.407797,0.00001144
0.408797,0.00004144
0.409797,-0.00000451
0.410797,0.00000019
0.411797,0.00000294
0.412797,0.00006425
0.413797,0.00005752
0.414797,0.00007206
0.415797,0.00001199
0.416797,0.00004989
0.417797,0.00007304
0.418797,0.00007377
0.419797,0.00002100
0.352372,0.00007668
0.353372,0.00006591
0.354372,0.00003192
0.355372,0.00009884
0.356372,0.00002970
0.357372,0.00013909
0.358372,0.00004071
0.359372,0.00002007
0.360372,0.00007632
0.361372,0.00008679
0.362372,0.00014041
0.363372,0.00012206
0.364372,0.00012496
0.365372,0.00005229
0.366372,0.00006803
0.367372,0.00010992
0.368372,0.00008801
0.369372,0.00012679
0.370372,0.00004236
0.371372,0.00012308
0.372372,0.00013338
0.373372,0.00011085
0.374372,0.00010527
0.375372,0.00012217
0.376372,0.00008039
0.377372,0.00014658
0.378372,0.00012991
0.379372,0.00022999
0.380372,0.00013457
0.381372,0.00013699
0.382372,0.00016452
0.383372,0.00014674
0.384372,0.00017586
0.385372,0.00019164
0.386372,0.00018362
0.387372,0.00017890
0.388372,0.00017926
0.389372,0.00013644
0.390372,0.00013420
0.391372,0.00020311
0.392372,0.00020469
0.393372,0.00018861
0.394372,0.00016889
0.395372,0.00014141
0.396372,0.00023630
0.397372,0.00018626
0.398372,0.00016627
0.399372,0.00021921
0.400372,0.00019035
0.401372,0.00019771
0.402372,0.00017283
0.403372,0.00024843
0.404372,0.00021315
0.405372,0.00021834
0.406372,0.00020625
0.407372,0.00024183
0.408372,0.00021345
0.409372,0.00023202
0.410372,0.00021951
0.411372,0.00021985
0.412372,0.00022192
0.413372,0.00016425
0.414372,0.00017231
0.415372,0.00019848
0.416372,0.00021581
0.417372,0.00023165
0.418372,0.00018892
0.419372,0.00025478
0.420372,0.00018680
0.421372,0.00019570
0.422372,0.00017366
0.423372,0.00020867
0.424372,0.00019396
0.425372,0.00022738
0.426372,0.00020933
0.427372,0.00022341
0.428372,0.00025430
0.429372,0.00018313
0.430372,0.00020988
0.431372,0.00022032
0.432372,0.00019412
0.433372,0.00020409
0.434372,0.00019622
0.435372,0.00021427
0.436372,0.00022840
0.437372,0.00019641
0.438372,0.00023896
0.439372,0.00021740
0.440372,0.00014441
0.441372,0.00017738
0.442372,0.00022241
0.443372,0.00015330
0.444372,0.00022421
0.445372,0.00017479
0.446372,0.00021346
0.447372,0.00014525
0.448372,0.00013781
0.449372,0.00015978
0.450372,0.00021060
0.451372,0.00015753
0.384100,0.00013443
0.385100,0.00020697
0.386100,0.00011421
0.387100,0.00014198
0.388100,0.00014939
0.389100,0.00016356
0.390100,0.00011228
0.391100,0.00018507
0.392100,0.00010276
0.393100,0.00009809
0.394100,0.00014190
0.395100,0.00012681
0.396100,0.00009117
0.397100,0.00004719
0.398100,0.00011526
0.399100,0.00011178
0.400100,0.00007806
0.401100,0.00010913
0.402100,0.00008929
0.403100,0.00010183
0.404100,0.00006717
0.405100,0.00004177
0.406100,0.00013172
0.407100,0.00015696
0.408100,0.00008395
0.409100,0.00006956
0.410100,0.00007310
0.411100,0.00002559
0.412100,0.00007591
0.413100,0.00006631
0.414100,0.00006581
0.415100,0.00006731
0.416100,0.00008556
0.417100,0.00006084
0.418100,0.00004237
0.419100,0.00005455
0.420100,0.00004677
0.421100,0.00003959
0.422100,0.00004466
0.423100,0.00001392
0.424100,0.00000388
0.425100,0.00001029
0.426100,0.00008358
0.427100,0.00005655
0.428100,0.00005571
0.429100,0.00006650
0.430100,0.00007815
0.431100,0.00002710
0.432100,0.00002697
0.433100,0.00004217
0.434100,0.00002023
0.435100,0.00000372
0.436100,0.00001393
0.437100,0.00004038
0.438100,0.00003378
0.439100,0.00000482
0.440100,0.00005287
0.441100,-0.00003088
0.442100,-0.00003987
0.443100,0.00005495
0.444100,0.00006054
0.445100,-0.00003247
0.446100,0.00006223
0.447100,0.00001938
0.448100,0.00001692
0.449100,-0.00001730
0.450100,0.00005168
0.451100,0.00002590
0.452100,0.00006937
0.453100,-0.00001869
0.454100,0.00001942
0.455100,0.00002556
0.456100,-0.00000197
0.457100,-0.00003860
0.458100,0.00008458
0.459100,-0.00006286
0.460100,-0.00003424
0.461100,-0.00003039
0.462100,-0.00000171
0.463100,-0.00003173
0.464100,-0.00002170
0.465100,-0.00002078
0.466100,-0.00003676
0.467100,-0.00000479
0.468100,-0.00005667
0.469100,-0.00002062
0.470100,-0.00003085
0.471100,0.00001817
0.472100,0.00003998
0.473100,-0.00002012
0.474100,0.00001837
0.475100,-0.00003906
0.476100,-0.00007300
0.477100,0.00001650
0.478100,-0.00001239
0.479100,-0.00000073
0.480100,-0.00001672
0.481100,-0.00009992
0.482100,0.00002740
0.483100,0.00005775
0.415805,-0.00001836
0.416805,0.00000018
0.417805,0.00002918
0.418805,0.00001294
0.419805,-0.00000651
0.420805,-0.00003417
0.421805,-0.00000118
0.422805,0.00000709
0.423805,0.00002623
0.424805,0.00001891
0.425805,0.00003622
0.426805,-0.00004056
0.427805,0.00002104
0.428805,-0.00000134
0.429805,-0.00007774
0.430805,-0.00004276
0.431805,0.00001281
0.432805,0.00000182
0.433805,-0.00001745
0.434805,-0.00001634
0.435805,0.00002353
0.436805,-0.00006307
0.437805,0.00002111
0.438805,-0.00000915
0.439805,-0.00002999
0.440805,0.00006019
0.441805,0.00001582
0.442805,-0.00000264
0.443805,-0.00006877
0.444805,0.00001599
0.445805,0.00000818
0.446805,0.00000145
0.447805,0.00002483
0.448805,0.00005845
0.449805,-0.00000261
0.450805,0.00002598
0.451805,0.00001375
0.452805,-0.00003521
0.453805,-0.00000097
0.454805,-0.00002647
0.455805,-0.00003232
0.456805,0.00000909
0.457805,0.00000144
0.458805,-0.00001102
0.459805,0.00001267
0.460805,-0.00000451
0.461805,-0.00004410
0.462805,0.00000098
0.463805,0.00000662
0.464805,0.00000415
0.465805,-0.00001683
0.466805,-0.00000859
0.467805,0.00001432
0.468805,0.00002879
0.469805,0.00002104
0.470805,-0.00000217
0.471805,-0.00006469
0.472805,0.00005354
0.473805,-0.00005134
0.474805,0.00005468
0.475805,-0.00003331
0.476805,-0.00002655
0.477805,0.00001292
0.478805,-0.00001162
0.479805,0.00002752
0.480805,-0.00001317
0.481805,-0.00000152
0.482805,0.00005650
0.483805,0.00002255
0.484805,-0.00000854
0.485805,-0.00003372
0.486805,0.00003576
0.487805,-0.00007693
0.488805,0.00004226
0.489805,0.00001741
0.490805,0.00002158
0.491805,0.00001365
0.492805,-0.00002444
0.493805,0.00003461
0.494805,0.00002130
0.495805,0.00001776
0.496805,-0.00001075
0.497805,-0.00003821
0.498805,0.00001488
0.499805,0.00000450
0.500805,-0.00003225
0.501805,0.00004496
0.502805,0.00004070
0.503805,-0.00000778
0.504805,0.00000957
0.505805,0.00001901
0.506805,-0.00005514
0.507805,0.00001791
0.508805,-0.00002389
0.509805,-0.00002641
0.510805,-0.00000777
0.511805,0.00001395
0.512805,-0.00000923
0.513805,-0.00001110
0.514805,0.00005161
0.447163,-0.00007579
0.448163,0.00000266
0.449163,-0.00002476
0.450163,0.00004611
0.451163,0.00000746
0.452163,0.00005124
0.453163,0.00004322
0.454163,0.00007360
0.455163,-0.00001506
0.456163,-0.00003240
0.457163,-0.00001675
0.458163,-0.00002670
0.459163,-0.00001504
0.460163,0.00003267
0.461163,0.00002165
0.462163,-0.00001272
0.463163,-0.00001204
0.464163,-0.00000210
0.465163,-0.00003093
0.466163,-0.00001971
0.467163,0.00001240
0.468163,0.00002650
0.469163,0.00004853
0.470163,0.00002389
0.471163,-0.00003959
0.472163,-0.00003123
0.473163,-0.00002104
0.474163,0.00000377
0.475163,0.00005103
0.476163,0.00002452
0.477163,0.00000983
0.478163,-0.00002053
0.479163,0.00006974
0.480163,0.00003667
0.481163,0.00003303
0.482163,-0.00003835
0.483163,-0.00001451
0.484163,-0.00000680
0.485163,0.00002037
0.486163,-0.00002300
0.487163,-0.00001831
0.488163,0.00001902
0.489163,-0.00003881
0.490163,-0.00004725
0.491163,0.00001226
0.492163,0.00003930
0.493163,-0.00002377
0.494163,0.00002530
0.495163,0.00005576
0.496163,0.00004298
0.497163,0.00002783
0.498163,0.00001242
0.499163,-0.00004367
0.500163,-0.00000448
0.501163,-0.00001826
0.502163,-0.00000776
0.503163,-0.00000186
0.504163,0.00001179
0.505163,0.00001093
0.506163,-0.00003456
0.507163,0.00003197
0.508163,0.00005466
0.509163,-0.00001782
0.510163,0.00000996
0.511163,-0.00001632
0.512163,0.00001770
0.513163,0.00003707
0.514163,0.00004788
0.515163,-0.00001419
0.516163,-0.00001604
0.517163,0.00003186
0.518163,-0.00001384
0.519163,-0.00000240
0.520163,0.00000211
0.521163,0.00002980
0.522163,-0.00001928
0.523163,0.00004223
0.524163,-0.00002158
0.525163,0.00001388
0.526163,0.00006594
0.527163,-0.00001557
0.528163,0.00003203
0.529163,-0.00000467
0.530163,-0.00001112
0.531163,0.00000545
0.532163,0.00000460
0.533163,-0.00001292
0.534163,-0.00009858
0.535163,-0.00005882
0.536163,-0.00007092
0.537163,-0.00002235
0.538163,-0.00001358
0.539163,-0.00001273
0.540163,0.00002959
0.541163,0.00004259
0.542163,0.00000797
0.543163,-0.00000373
0.544163,0.00001901
0.545163,0.00001195
0.546163,-0.00001111
0.478906,0.00002534
0.479906,0.00001043
0.480906,0.00001581
0.481906,0.00001472
0.482906,0.00001703
0.483906,0.00002520
0.484906,0.00001272
0.485906,0.00003664
0.486906,0.00001230
0.487906,0.00005459
0.488906,0.00001737
0.489906,-0.00003256
0.490906,-0.00001514
0.491906,0.00003382
0.492906,0.00000865
0.493906,0.00001632
0.494906,0.00001313
0.495906,-0.00005722
0.496906,0.00004065
0.497906,-0.00000231
0.498906,-0.00002983
0.499906,0.00004842
0.500906,-0.00006151
0.501906,-0.00000224
0.502906,-0.00002053
0.503906,-0.00001779
0.504906,0.00001922
0.505906,-0.00002221
0.506906,-0.00003275
0.507906,0.00000970
0.508906,-0.00003344
0.509906,0.00003496
0.510906,0.00003524
0.511906,-0.00000036
0.512906,-0.00002553
0.513906,0.00007049
0.514906,-0.00001049
0.515906,0.00001129
0.516906,0.00000931
0.517906,-0.00001997
0.518906,-0.00002698
0.519906,0.00000366
0.520906,-0.00002247
0.521906,-0.00003048
0.522906,-0.00007144
0.523906,0.00000904
0.524906,0.00002632
0.525906,0.00005353
0.526906,-0.00002709
0.527906,-0.00001891
0.528906,0.00004469
0.529906,-0.00005058
0.530906,0.00000584
0.531906,-0.00003952
0.532906,0.00001777
0.533906,0.00002696
0.534906,-0.00002323
0.535906,-0.00001869
0.536906,0.00000282
0.537906,0.00000664
0.538906,-0.00003041
0.539906,-0.00000093
0.540906,0.00004322
0.541906,0.00000048
0.542906,-0.00002542
0.543906,-0.00000846
0.544906,0.00000077
0.545906,0.00005269
0.546906,0.00000447
0.547906,0.00000622
0.548906,0.00003686
0.549906,0.00002544
0.550906,0.00008131
0.551906,0.00000452
0.552906,-0.00000308
0.553906,-0.00001791
0.554906,-0.00002264
0.555906,-0.00000790
0.556906,0.00001697
0.557906,0.00001043
0.558906,0.00002543
0.559906,-0.00001868
0.560906,-0.00002711
0.561906,0.00002152
0.562906,0.00002036
0.563906,0.00002672
0.564906,-0.00001110
0.565906,0.00000219
0.566906,0.00000692
0.567906,0.00000483
0.568906,0.00005776
0.569906,-0.00000514
0.570906,0.00003363
0.571906,0.00007082
0.572906,0.00007141
0.573906,0.00002135
0.574906,0.00005222
0.575906,0.00003439
0.576906,-0.00001253
0.577906,0.00000046
0.506525,0.00004179
0.507525,0.00005139
0.508525,0.00000647
0.509525,0.00002764
0.510525,0.00004122
0.511525,0.00003280
0.512525,0.00009890
0.513525,0.00002631
0.514525,0.00005755
0.515525,0.00001643
0.516525,0.00007454
0.517525,0.00009114
0.518525,0.00003124
0.519525,0.00002599
0.520525,0.00001011
0.521525,0.00003357
0.522525,0.00000032
0.523525,0.00003057
0.524525,0.00004927
0.525525,0.00007671
0.526525,0.00003912
0.527525,0.00005232
0.528525,0.00007566
0.529525,0.00008218
0.530525,0.00011998
0.531525,0.00004930
0.532525,0.00010391
0.533525,0.00011450
0.534525,0.00001908
0.535525,0.00005979
0.536525,0.00007420
0.537525,0.00007130
0.538525,0.00003189
0.539525,0.00007886
0.540525,-0.00000860
0.541525,0.00004231
0.542525,0.00007246
0.543525,0.00005846
0.544525,0.00010549
0.545525,0.00007514
0.546525,0.00009844
0.547525,0.00007009
0.548525,0.00010931
0.549525,0.00005662
0.550525,0.00006009
0.551525,0.00012426
0.552525,0.00008644
0.553525,0.00012923
0.554525,0.00009115
0.555525,0.00009248
0.556525,0.00011066
0.557525,0.00010167
0.558525,0.00004577
0.559525,0.00011531
0.560525,0.00005754
0.561525,0.00007934
0.562525,0.00006337
0.563525,0.00010588
0.564525,0.00009946
0.565525,0.00014441
0.566525,0.00003693
0.567525,0.00004615
0.568525,0.00006923
0.569525,0.00003886
0.570525,0.00010406
0.571525,0.00009428
0.572525,0.00008194
0.573525,0.00006966
0.574525,0.00007914
0.575525,0.00007223
0.576525,0.00009516
0.577525,0.00011858
0.578525,0.00007834
0.579525,0.00005271
0.580525,0.00006592
0.581525,0.00002475
0.582525,0.00002977
0.583525,0.00002737
0.584525,0.00003807
0.585525,0.00004134
0.586525,0.00011326
0.587525,0.00006506
0.588525,0.00002571
0.589525,0.00005853
0.590525,0.00005642
0.591525,0.00007538
0.592525,0.00006338
0.593525,0.00004981
0.594525,0.00004081
0.595525,-0.00000487
0.596525,0.00002625
0.597525,0.00004236
0.598525,0.00005180
0.599525,0.00008100
0.600525,0.00004149
0.601525,0.00009276
0.602525,0.00008214
0.603525,-0.00001415
0.604525,0.00004847
0.605525,0.00003828
0.548893,0.00002941
0.549893,-0.00000530
0.550893,0.00004565
0.551893,-0.00002215
0.552893,-0.00002324
0.553893,-0.00001190
0.554893,-0.00002367
0.555893,0.00004551
0.556893,-0.00001289
0.557893,-0.00001116
0.558893,-0.00003075
0.559893,0.00003070
0.560893,0.00002560
0.561893,0.00003087
0.562893,-0.00000881
0.563893,0.00002637
0.564893,0.00002992
0.565893,-0.00001945
0.566893,0.00003252
0.567893,-0.00001949
0.568893,0.00002192
0.569893,-0.00006979
0.570893,-0.00002517
0.571893,0.00003340
0.572893,0.00003253
0.573893,-0.00001388
0.574893,-0.00002306
0.575893,0.00004101
0.576893,0.00001472
0.577893,0.00007981
0.578893,-0.00002774
0.579893,0.00005782
0.580893,0.00000108
0.581893,0.00002791
0.582893,-0.00001313
0.583893,0.00002835
0.584893,0.00001606
0.585893,-0.00005867
0.586893,-0.00002061
0.587893,0.00001664
0.588893,0.00004065
0.589893,0.00001671
0.590893,0.00002863
0.591893,0.00003751
0.592893,-0.00002392
0.593893,0.00003242
0.594893,-0.00000587
0.595893,-0.00000315
0.596893,-0.00001805
0.597893,0.00001223
0.598893,-0.00003036
0.599893,-0.00003257
0.600893,-0.00001085
0.601893,0.00000365
0.602893,-0.00000168
0.603893,-0.00000630
0.604893,0.00000362
0.605893,0.00001688
0.606893,-0.00000395
0.607893,-0.00003498
0.608893,-0.00003620
0.609893,0.00003407
0.610893,-0.00002333
0.611893,0.00005758
0.612893,-0.00003418
0.613893,-0.00000946
0.614893,0.00003553
0.615893,0.00005160
0.616893,0.00001370
0.617893,0.00002091
0.618893,-0.00004511
0.619893,0.00002661
0.620893,0.00000585
0.621893,0.00000933
0.622893,0.00005810
0.623893,-0.00004996
0.624893,0.00001722
0.625893,0.00002517
0.626893,-0.00001893
0.627893,-0.00001941
0.628893,-0.00000175
0.629893,0.00004509
0.630893,-0.00001241
0.631893,-0.00000248
0.632893,0.00001117
0.633893,0.00006825
0.634893,-0.00001806
0.635893,-0.00001580
0.636893,-0.00000813
0.637893,0.00002885
0.638893,0.00002272
0.639893,0.00002280
0.640893,-0.00000445
0.641893,0.00004219
0.642893,-0.00000291
0.643893,-0.00002331
0.644893,0.00005309
0.645893,-0.00003685
0.646893,0.00003475
0.647893,0.00001108
0.580498,-0.00000202
0.581498,0.00001610
0.582498,0.00002552
0.583498,-0.00004600
0.584498,0.00000018
0.585498,0.00003156
0.586498,-0.00003417
0.587498,-0.00001068
0.588498,0.00001136
0.589498,0.00001568
0.590498,0.00003189
0.591498,0.00002735
0.592498,-0.00000517
0.593498,-0.00004960
0.594498,0.00000685
0.595498,-0.00002494
0.596498,-0.00000185
0.597498,0.00001355
0.598498,0.00003444
0.599498,-0.00000628
0.600498,-0.00007184
0.601498,0.00001605
0.602498,0.00003693
0.603498,-0.00004244
0.604498,0.00008224
0.605498,0.00000911
0.606498,-0.00000442
0.607498,-0.00002421
0.608498,0.00004362
0.609498,0.00007334
0.610498,-0.00003167
0.611498,0.00000331
0.612498,-0.00001955
0.613498,0.00002962
0.614498,-0.00004915
0.615498,0.00002995
0.616498,0.00001343
0.617498,0.00000597
0.618498,-0.00001759
0.619498,0.00004693
0.620498,-0.00004731
0.621498,0.00003460
0.622498,0.00004579
0.623498,-0.00001468
0.624498,-0.00002067
0.625498,0.00001343
0.626498,0.00001210
0.627498,0.00003162
0.628498,0.00002987
0.629498,0.00006133
0.630498,0.00009722
0.631498,0.00018186
0.632498,0.00025208
0.633498,0.00028207
0.634498,0.00032485
0.635498,0.00041816
0.636498,0.00050565
0.637498,0.00055833
0.638498,0.00066060
0.639498,0.00074245
0.640498,0.00079364
0.641498,0.00092678
0.642498,0.00097074
0.643498,0.00107406
0.644498,0.00117256
0.645498,0.00121978
0.646498,0.00121012
0.647498,0.00119969
0.648498,0.00117521
0.649498,0.00111910
0.650498,0.00106670
0.651498,0.00097873
0.652498,0.00084554
0.653498,0.00081960
0.654498,0.00070476
0.655498,0.00062276
0.656498,0.00048012
0.657498,0.00043317
0.658498,0.00028444
0.659498,0.00018815
0.660498,0.00014670
0.661498,0.00005685
0.662498,0.00003752
0.663498,-0.00002742
0.664498,-0.00006254
0.665498,-0.00015192
0.666498,-0.00020832
0.667498,-0.00025196
0.668498,-0.00024570
0.669498,-0.00020661
0.670498,-0.00026288
0.671498,-0.00025411
0.672498,-0.00023979
0.673498,-0.00022212
0.674498,-0.00029777
0.675498,-0.00026504
0.676498,-0.00022177
0.677498,-0.00025033
0.678498,-0.00018671
0.679498,-0.00022890
0.612679,-0.00020277
0.613679,-0.00015231
0.614679,-0.00009795
0.615679,-0.00006800
0.616679,-0.00016004
0.617679,-0.00012567
0.618679,-0.00006027
0.619679,-0.00007566
0.620679,-0.00004124
0.621679,-0.00005835
0.622679,-0.00002129
0.623679,-0.00003418
0.624679,-0.00002902
0.625679,-0.00002390
0.626679,-0.00000713
0.627679,-0.00001457
0.628679,0.00003000
0.629679,0.00003170
0.630679,0.00006734
0.631679,0.00002871
0.632679,-0.00000100
0.633679,0.00004668
0.634679,0.00005029
0.635679,0.00005515
0.636679,0.00001130
0.637679,0.00002636
0.638679,0.00002390
0.639679,0.00007342
0.640679,0.00001401
0.641679,0.00002529
0.642679,0.00004022
0.643679,0.00008619
0.644679,0.00003295
0.645679,-0.00000370
0.646679,0.00013418
0.647679,0.00006936
0.648679,0.00002742
0.649679,0.00009503
0.650679,0.00002583
0.651679,0.00006466
0.652679,0.00010737
0.653679,0.00008562
0.654679,0.00010540
0.655679,0.00011758
0.656679,0.00005118
0.657679,0.00014525
0.658679,0.00011470
0.659679,0.00007834
0.660679,0.00008390
0.661679,0.00013224
0.662679,0.00013685
0.663679,0.00014285
0.664679,0.00014919
0.665679,0.00009386
0.666679,0.00011845
0.667679,0.00012274
0.668679,0.00014381
0.669679,0.00010014
0.670679,0.00014938
0.671679,0.00015696
0.672679,0.00010283
0.673679,0.00015863
0.674679,0.00011122
0.675679,0.00014627
0.676679,0.00016912
0.677679,0.00013234
0.678679,0.00017121
0.679679,0.00015174
0.680679,0.00014381
0.681679,0.00016646
0.682679,0.00016414
0.683679,0.00022595
0.684679,0.00021332
0.685679,0.00021392
0.686679,0.00015819
0.687679,0.00014218
0.688679,0.00016208
0.689679,0.00021992
0.690679,0.00017562
0.691679,0.00023527
0.692679,0.00023485
0.693679,0.00016070
0.694679,0.00022151
0.695679,0.00019434
0.696679,0.00027688
0.697679,0.00022949
0.698679,0.00020290
0.699679,0.00014132
0.700679,0.00023510
0.701679,0.00021423
0.702679,0.00019611
0.703679,0.00027033
0.704679,0.00015445
0.705679,0.00022243
0.706679,0.00022441
0.707679,0.00021960
0.708679,0.00023244
0.709679,0.00021551
0.710679,0.00024611
0.711679,0.00016558
0.644578,0.00019627
0.645578,0.00023397
0.646578,0.00021977
0.647578,0.00026484
0.648578,0.00018512
0.649578,0.00023608
0.650578,0.00022983
0.651578,0.00025778
0.652578,0.00022164
0.653578,0.00025518
0.654578,0.00019279
0.655578,0.00017291
0.656578,0.00025068
0.657578,0.00022316
0.658578,0.00018258
0.659578,0.00017042
0.660578,0.00020110
0.661578,0.00021449
0.662578,0.00026590
0.663578,0.00022838
0.664578,0.00017895
0.665578,0.00021608
0.666578,0.00021101
0.667578,0.00019427
0.668578,0.00018193
0.669578,0.00020528
0.670578,0.00018800
0.671578,0.00015299
0.672578,0.00017904
0.673578,0.00021734
0.674578,0.00018174
0.675578,0.00012842
0.676578,0.00021282
0.677578,0.00016768
0.678578,0.00016131
0.679578,0.00018086
0.680578,0.00016464
0.681578,0.00018044
0.682578,0.00011918
0.683578,0.00013099
0.684578,0.00015303
0.685578,0.00017915
0.686578,0.00014079
0.687578,0.00016088
0.688578,0.00017157
0.689578,0.00013139
0.690578,0.00010826
0.691578,0.00011641
0.692578,0.00006494
0.693578,0.00010132
0.694578,0.00012719
0.695578,0.00009152
0.696578,0.00006527
0.697578,0.00009315
0.698578,0.00008316
0.699578,0.00010634
0.700578,0.00009466
0.701578,0.00007200
0.702578,0.00010040
0.703578,0.00008526
0.704578,0.00009047
0.705578,0.00007184
0.706578,0.00008247
0.707578,0.00004527
0.708578,0.00006125
0.709578,0.00011357
0.710578,0.00004693
0.711578,0.00004591
0.712578,0.00005703
0.713578,0.00004289
0.714578,0.00003083
0.715578,0.00001299
0.716578,0.00000349
0.717578,0.00008602
0.718578,0.00006742
0.719578,0.00008941
0.720578,0.00008059
0.721578,0.00005294
0.722578,0.00008305
0.723578,-0.00003653
0.724578,0.00001549
0.725578,-0.00001885
0.726578,0.00005396
0.727578,0.00002474
0.728578,-0.00000485
0.729578,0.00002687
0.730578,0.00005005
0.731578,0.00005586
0.732578,-0.00001442
0.733578,0.00003760
0.734578,0.00001807
0.735578,0.00006760
0.736578,0.00000280
0.737578,0.00006277
0.738578,-0.00000048
0.739578,0.00002682
0.740578,0.00002282
0.741578,0.00002579
0.742578,0.00006015
0.743578,0.00003508
0.676412,-0.00001775
0.677412,-0.00000485
0.678412,0.00001440
0.679412,-0.00004448
0.680412,0.00003612
0.681412,-0.00000482
0.682412,0.00000945
0.683412,0.00000215
0.684412,0.00004220
0.685412,0.00001942
0.686412,-0.00001577
0.687412,0.00001132
0.688412,-0.00004507
0.689412,-0.00001778
0.690412,-0.00005381
0.691412,0.00001663
0.692412,0.00003019
0.693412,0.00000784
0.694412,0.00000220
0.695412,-0.00000529
0.696412,0.00002811
0.697412,-0.00000330
0.698412,0.00001360
0.699412,0.00003299
0.700412,-0.00004183
0.701412,0.00000381
0.702412,0.00004409
0.703412,-0.00002466
0.704412,-0.00001407
0.705412,0.00004819
0.706412,-0.00000209
0.707412,-0.00000909
0.708412,0.00002224
0.709412,-0.00001202
0.710412,-0.00004125
0.711412,-0.00000185
0.712412,0.00001637
0.713412,-0.00002146
0.714412,-0.00001643
0.715412,-0.00001666
0.716412,0.00001115
0.717412,-0.00001084
0.718412,0.00003082
0.719412,0.00002551
0.720412,-0.00000971
0.721412,0.00003756
0.722412,-0.00001232
0.723412,-0.00004636
0.724412,0.00002949
0.725412,0.00001527
0.726412,0.00001060
0.727412,-0.00001573
0.728412,-0.00001396
0.729412,0.00005022
0.730412,-0.00001728
0.731412,0.00001235
0.732412,0.00000888
0.733412,0.00004880
0.734412,-0.00002390
0.735412,0.00000886
0.736412,0.00000426
0.737412,0.00002888
0.738412,-0.00001160
0.739412,-0.00003365
0.740412,0.00002836
0.741412,-0.00003543
0.742412,-0.00000917
0.743412,-0.00000823
0.744412,-0.00001262
0.745412,0.00004228
0.746412,-0.00003264
0.747412,0.00003384
0.748412,-0.00001156
0.749412,0.00000013
0.750412,0.00001442
0.751412,-0.00002773
0.752412,0.00004106
0.753412,-0.00000864
0.754412,0.00001708
0.755412,0.00000664
0.756412,-0.00000158
0.757412,0.00004858
0.758412,-0.00003536
0.759412,-0.00000053
0.760412,0.00003790
0.761412,0.00000935
0.762412,-0.00004206
0.763412,0.00002599
0.764412,-0.00001819
0.765412,0.00001190
0.766412,-0.00003457
0.767412,0.00000856
0.768412,0.00006241
0.769412,-0.00000396
0.770412,-0.00003807
0.771412,0.00001968
0.772412,-0.00000150
0.773412,0.00002710
0.774412,-0.00000911
0.775412,0.00004068
0.701468,-0.00000070
0.702468,0.00003884
0.703468,0.00001019
0.704468,-0.00001124
0.705468,-0.00002064
0.706468,-0.00003175
0.707468,0.00000795
0.708468,-0.00000299
0.709468,0.00000268
0.710468,0.00000681
0.711468,0.00002631
0.712468,-0.00002218
0.713468,0.00002248
0.714468,0.00002977
0.715468,0.00003400
0.716468,-0.00001039
0.717468,0.00006177
0.718468,0.00000031
0.719468,0.00001033
0.720468,-0.00002320
0.721468,-0.00000741
0.722468,-0.00000648
0.723468,0.00005071
0.724468,-0.00000835
0.725468,-0.00006053
0.726468,0.00003562
0.727468,0.00000746
0.728468,0.00002990
0.729468,-0.00000109
0.730468,0.00000117
0.731468,0.00001641
0.732468,0.00005182
0.733468,-0.00002840
0.734468,0.00004860
0.735468,0.00001968
0.736468,0.00000260
0.737468,-0.00001207
0.738468,-0.00004931
0.739468,-0.00002388
0.740468,-0.00003910
0.741468,0.00000347
0.742468,0.00001455
0.743468,0.00000709
0.744468,-0.00001479
0.745468,-0.00003397
0.746468,0.00003923
0.747468,-0.00004888
0.748468,0.00001460
0.749468,-0.00010052
0.750468,-0.00000212
0.751468,0.00005764
0.752468,0.00003439
0.753468,-0.00000764
0.754468,0.00002268
0.755468,0.00000831
0.756468,0.00004182
0.757468,-0.00000852
0.758468,0.00004484
0.759468,0.00002092
0.760468,0.00000003
0.761468,-0.00000203
0.762468,-0.00005615
0.763468,0.00003970
0.764468,0.00001693
0.765468,-0.00004804
0.766468,0.00000370
0.767468,0.00004677
0.768468,0.00002899
0.769468,0.00003977
0.770468,0.00000263
0.771468,0.00003192
0.772468,-0.00002757
0.773468,-0.00005893
0.774468,0.00005945
0.775468,-0.00002400
0.776468,-0.00002913
0.777468,0.00000331
0.778468,0.00000975
0.779468,-0.00002999
0.780468,-0.00003062
0.781468,-0.00003661
0.782468,0.00000947
0.783468,-0.00004491
0.784468,0.00006294
0.785468,0.00002059
0.786468,-0.00002515
0.787468,-0.00000254
0.788468,-0.00001271
0.789468,-0.00003802
0.790468,-0.00000763
0.791468,0.00001237
0.792468,-0.00003797
0.793468,0.00002875
0.794468,-0.00002269
0.795468,0.00000082
0.796468,0.00000826
0.797468,-0.00002047
0.798468,-0.00003290
0.799468,-0.00002323
0.800468,-0.00006227
0.733689,-0.00000963
0.734689,-0.00007759
0.735689,0.00000103
0.736689,-0.00001948
0.737689,-0.00000837
0.738689,0.00002021
0.739689,0.00002135
0.740689,-0.00000413
0.741689,0.00000411
0.742689,0.00003191
0.743689,-0.00001778
0.744689,0.00000920
0.745689,-0.00001576
0.746689,0.00004440
0.747689,0.00000700
0.748689,0.00002186
0.749689,0.00000411
0.750689,0.00005581
0.751689,-0.00003286
0.752689,0.00002051
0.753689,-0.00005205
0.754689,0.00000754
0.755689,0.00002336
0.756689,-0.00001317
0.757689,0.00000910
0.758689,-0.00000366
0.759689,0.00000761
0.760689,0.00001017
0.761689,0.00004709
0.762689,-0.00003024
0.763689,0.00000961
0.764689,0.00002204
0.765689,-0.00006672
0.766689,0.00000043
0.767689,-0.00001220
0.768689,-0.00003340
0.769689,0.00000519
0.770689,-0.00001610
0.771689,0.00003553
0.772689,0.00001992
0.773689,-0.00000771
0.774689,-0.00006453
0.775689,0.00007600
0.776689,-0.00000221
0.777689,-0.00001999
0.778689,0.00003674
0.779689,0.00005137
0.780689,0.00002056
0.781689,0.00003853
0.782689,0.00000367
0.783689,-0.00001012
0.784689,0.00001067
0.785689,0.00000398
0.786689,0.00000952
0.787689,-0.00000963
0.788689,0.00002039
0.789689,0.00003759
0.790689,-0.00000438
0.791689,0.00004936
0.792689,-0.00000478
0.793689,-0.00000564
0.794689,-0.00003892
0.795689,-0.00002730
0.796689,0.00001943
0.797689,0.00003639
0.798689,-0.00001997
0.799689,0.00005949
0.800689,-0.00006749
0.801689,-0.00003875
0.802689,0.00003805
0.803689,-0.00004211
0.804689,0.00000834
0.805689,0.00005437
0.806689,-0.00003088
0.807689,-0.00003380
0.808689,0.00002348
0.809689,0.00005988
0.810689,-0.00002718
0.811689,0.00002525
0.812689,-0.00001341
0.813689,-0.00000498
0.814689,0.00001039
0.815689,-0.00000337
0.816689,-0.00000769
0.817689,-0.00003545
0.818689,-0.00001388
0.819689,-0.00001025
0.820689,0.00002865
0.821689,0.00002774
0.822689,0.00003599
0.823689,0.00003239
0.824689,0.00003816
0.825689,-0.00000837
0.826689,0.00001977
0.827689,0.00000642
0.828689,0.00001621
0.829689,-0.00001166
0.830689,-0.00005217
0.831689,0.00000936
0.832689,0.00003926
0.766638,0.00003873
0.767638,0.00000585
0.768638,-0.00000493
0.769638,-0.00006736
0.770638,-0.00000292
0.771638,0.00002601
0.772638,-0.00002654
0.773638,-0.00004054
0.774638,-0.00001309
0.775638,0.00002373
0.776638,0.00003727
0.777638,0.00002146
0.778638,-0.00004381
0.779638,-0.00003285
0.780638,0.00002160
0.781638,0.00003359
0.782638,0.00002589
0.783638,0.00000840
0.784638,-0.00001878
0.785638,-0.00001873
0.786638,0.00004223
0.787638,0.00002805
0.788638,-0.00003157
0.789638,-0.00001207
0.790638,0.00004647
0.791638,0.00005225
0.792638,-0.00004621
0.793638,0.00001382
0.794638,0.00007703
0.795638,0.00001991
0.796638,0.00001700
0.797638,0.00001667
0.798638,0.00002953
0.799638,0.00001642
0.800638,-0.00000158
0.801638,0.00003617
0.802638,0.00005867
0.803638,0.00004566
0.804638,0.00004897
0.805638,0.00001560
0.806638,0.00004182
0.807638,0.00001167
0.808638,0.00004643
0.809638,0.00001122
0.810638,0.00005453
0.811638,0.00002791
0.812638,0.00004872
0.813638,0.00008472
0.814638,0.00006447
0.815638,0.00003538
0.816638,-0.00000081
0.817638,0.00007129
0.818638,0.00007282
0.819638,0.00003994
0.820638,0.00001394
0.821638,0.00003543
0.822638,0.00005263
0.823638,0.00003874
0.824638,0.00010727
0.825638,0.00012022
0.826638,-0.00000568
0.827638,0.00003914
0.828638,0.00007489
0.829638,0.00005155
0.830638,0.00012884
0.831638,0.00004892
0.832638,0.00009145
0.833638,0.00006673
0.834638,0.00010934
0.835638,0.00010783
0.836638,0.00005163
0.837638,0.00004850
0.838638,0.00010442
0.839638,0.00008992
0.840638,0.00007208
0.841638,0.00007842
0.842638,0.00004564
0.843638,0.00008148
0.844638,0.00003138
0.845638,0.00008044
0.846638,0.00006497
0.847638,0.00011020
0.848638,0.00007411
0.849638,0.00012707
0.850638,0.00006234
0.851638,0.00006694
0.852638,0.00007395
0.853638,0.00017810
0.854638,0.00005239
0.855638,0.00008187
0.856638,0.00006926
0.857638,0.00015585
0.858638,0.00010813
0.859638,0.00007928
0.860638,0.00011806
0.861638,0.00006491
0.862638,0.00006980
0.863638,0.00008519
0.864638,0.00012641
0.865638,0.00002785
0.800032,0.00006051
0.801032,0.00006263
0.802032,0.00005075
0.803032,0.00005299
0.804032,0.00005796
0.805032,0.00004943
0.806032,0.00009646
0.807032,0.00007331
0.808032,0.00004435
0.809032,0.00001817
0.810032,0.00005798
0.811032,0.00005029
0.812032,0.00004649
0.813032,0.00003982
0.814032,0.00003877
0.815032,0.00001376
0.816032,0.00002348
0.817032,0.00001768
0.818032,0.00007369
0.819032,0.00002918
0.820032,0.00004036
0.821032,0.00007987
0.822032,0.00006310
0.823032,-0.00000477
0.824032,0.00006474
0.825032,0.00003449
0.826032,0.00003043
0.827032,0.00000911
0.828032,0.00004569
0.829032,0.00000651
0.830032,-0.00000805
0.831032,0.00003140
0.832032,0.00009593
0.833032,0.00003489
0.834032,-0.00001306
0.835032,0.00002399
0.836032,0.00000409
0.837032,0.00003434
0.838032,0.00001367
0.839032,0.00001870
0.840032,0.00005035
0.841032,0.00002252
0.842032,0.00003488
0.843032,0.00007401
0.844032,0.00000956
0.845032,0.00005429
0.846032,0.00001794
0.847032,0.00004533
0.848032,-0.00000377
0.849032,0.00006176
0.850032,-0.00003687
0.851032,-0.00003399
0.852032,0.00002596
0.853032,0.00000406
0.854032,-0.00001255
0.855032,-0.00000181
0.856032,0.00002053
0.857032,-0.00002625
0.858032,0.00001358
0.859032,-0.00002596
0.860032,0.00000595
0.861032,-0.00002316
0.862032,0.00001844
0.863032,0.00004777
0.864032,0.00002042
0.865032,-0.00002133
0.866032,-0.00001671
0.867032,0.00001516
0.868032,-0.00002526
0.869032,0.00002411
0.870032,-0.00001891
0.871032,-0.00002494
0.872032,0.00003186
0.873032,0.00001506
0.874032,-0.00002182
0.875032,-0.00000064
0.876032,-0.00003141
0.877032,-0.00005342
0.878032,-0.00000400
0.879032,0.00000853
0.880032,-0.00000126
0.881032,-0.00001328
0.882032,0.00001537
0.883032,0.00000642
0.884032,0.00007551
0.885032,0.00002597
0.886032,-0.00001217
0.887032,0.00001804
0.888032,-0.00000289
0.889032,0.00001285
0.890032,0.00002429
0.891032,-0.00002923
0.892032,0.00000447
0.893032,-0.00003684
0.894032,0.00001580
0.895032,-0.00004882
0.896032,-0.00003672
0.897032,-0.00004743
0.898032,-0.00000348
0.899032,-0.00002667
0.833316,0.00002016
0.834316,-0.00000724
0.835316,0.00000572
0.836316,-0.00003438
0.837316,0.00004204
0.838316,0.00002348
0.839316,0.00003179
0.840316,-0.00000552
0.841316,-0.00001033
0.842316,0.00004871
0.843316,-0.00000346
0.844316,0.00004160
0.845316,0.00002403
0.846316,-0.00000879
0.847316,-0.00002122
0.848316,-0.00006477
0.849316,-0.00005076
0.850316,-0.00002120
0.851316,-0.00000889
0.852316,-0.00005135
0.853316,-0.00005600
0.854316,-0.00000718
0.855316,-0.00000262
0.856316,-0.00005209
0.857316,0.00005297
0.858316,0.00001273
0.859316,-0.00001418
0.860316,0.00000919
0.861316,-0.00001082
0.862316,-0.00006277
0.863316,0.00000014
0.864316,0.00004260
0.865316,0.00003421
0.866316,0.00001179
0.867316,0.00002271
0.868316,-0.00003718
0.869316,0.00000446
0.870316,0.00003443
0.871316,-0.00004181
0.872316,-0.00001644
0.873316,0.00000660
0.874316,-0.00003303
0.875316,-0.00001696
0.876316,-0.00000074
0.877316,0.00006436
0.878316,-0.00000168
0.879316,-0.00002834
0.880316,0.00006216
0.881316,-0.00001861
0.882316,0.00003545
0.883316,-0.00004816
0.884316,0.00002437
0.885316,-0.00003872
0.886316,-0.00001508
0.887316,0.00000331
0.888316,-0.00002599
0.889316,-0.00000674
0.890316,-0.00001787
0.891316,0.00003138
0.892316,-0.00000523
0.893316,0.00002585
0.894316,-0.00006022
0.895316,-0.00000964
0.896316,0.00001051
0.897316,-0.00005624
0.898316,0.00000080
0.899316,-0.00000637
0.900316,0.00001944
0.901316,0.00004846
0.902316,0.00000267
0.903316,0.00001686
0.904316,0.00001365
0.905316,0.00000408
0.906316,-0.00004516
0.907316,0.00004714
0.908316,0.00000184
0.909316,0.00000269
0.910316,0.00004951
0.911316,0.00008171
0.912316,0.00006675
0.913316,0.00008451
0.914316,0.00008834
0.915316,0.00010617
0.916316,0.00017871
0.917316,0.00011273
0.918316,0.00019427
0.919316,0.00029243
0.920316,0.00036493
0.921316,0.00037855
0.922316,0.00042495
0.923316,0.00054580
0.924316,0.00067874
0.925316,0.00069382
0.926316,0.00080559
0.927316,0.00086468
0.928316,0.00098458
0.929316,0.00107898
0.930316,0.00106570
0.931316,0.00118478
0.932316,0.00118725
0.866954,0.00122317
0.867954,0.00115203
0.868954,0.00115749
0.869954,0.00109318
0.870954,0.00104081
0.871954,0.00090785
0.872954,0.00083725
0.873954,0.00075117
0.874954,0.00064592
0.875954,0.00055740
0.876954,0.00043231
0.877954,0.00039783
0.878954,0.00029903
0.879954,0.00015070
0.880954,0.00012985
0.881954,0.00000985
0.882954,-0.00001208
0.883954,-0.00011130
0.884954,-0.00013122
0.885954,-0.00013635
0.886954,-0.00020383
0.887954,-0.00020936
0.888954,-0.00028402
0.889954,-0.00022224
0.890954,-0.00029205
0.891954,-0.00026894
0.892954,-0.00025180
0.893954,-0.00024619
0.894954,-0.00025043
0.895954,-0.00028834
0.896954,-0.00026439
0.897954,-0.00024325
0.898954,-0.00023265
0.899954,-0.00023758
0.900954,-0.00026998
0.901954,-0.00011864
0.902954,-0.00018828
0.903954,-0.00010406
0.904954,-0.00009575
0.905954,-0.00010597
0.906954,-0.00007847
0.907954,-0.00002610
0.908954,-0.00007840
0.909954,0.00000653
0.910954,0.00000891
0.911954,-0.00004307
0.912954,-0.00002616
0.913954,0.00004924
0.914954,-0.00004291
0.915954,0.00001160
0.916954,0.00001745
0.917954,-0.00000958
0.918954,0.00004723
0.919954,0.00004311
0.920954,0.00004257
0.921954,0.00001660
0.922954,0.00007116
0.923954,0.00003381
0.924954,0.00004322
0.925954,0.00001415
0.926954,0.00005258
0.927954,0.00004628
0.928954,0.00001251
0.929954,0.00010714
0.930954,0.00004719
0.931954,0.00004947
0.932954,0.00004324
0.933954,0.00001669
0.934954,0.00006336
0.935954,0.00003672
0.936954,0.00007163
0.937954,0.00012048
0.938954,0.00004344
0.939954,0.00005048
0.940954,0.00003211
0.941954,0.00008630
0.942954,0.00003915
0.943954,0.00010512
0.944954,0.00008638
0.945954,0.00009688
0.946954,0.00006144
0.947954,0.00009584
0.948954,0.00010323
0.949954,0.00011141
0.950954,0.00010110
0.951954,0.00006532
0.952954,0.00016454
0.953954,0.00010413
0.954954,0.00008592
0.955954,0.00012252
0.956954,0.00013367
0.957954,0.00012029
0.958954,0.00016988
0.959954,0.00015635
0.960954,0.00014856
0.961954,0.00016266
0.962954,0.00016750
0.963954,0.00017352
0.964954,0.00013702
0.965954,0.00019797
0.893981,0.00013345
0.894981,0.00015505
0.895981,0.00014475
0.896981,0.00017451
0.897981,0.00015294
0.898981,0.00017724
0.899981,0.00015427
0.900981,0.00018179
0.901981,0.00019107
0.902981,0.00016407
0.903981,0.00023069
0.904981,0.00020549
0.905981,0.00019570
0.906981,0.00019695
0.907981,0.00019294
0.908981,0.00021806
0.909981,0.00020791
0.910981,0.00022670
0.911981,0.00022352
0.912981,0.00026722
0.913981,0.00017459
0.914981,0.00021104
0.915981,0.00012480
0.916981,0.00018741
0.917981,0.00024322
0.918981,0.00027207
0.919981,0.00019712
0.920981,0.00017999
0.921981,0.00026694
0.922981,0.00022382
0.923981,0.00019406
0.924981,0.00019983
0.925981,0.00020738
0.926981,0.00017920
0.927981,0.00022479
0.928981,0.00017802
0.929981,0.00018024
0.930981,0.00019919
0.931981,0.00019883
0.932981,0.00024873
0.933981,0.00022392
0.934981,0.00021224
0.935981,0.00025681
0.936981,0.00020449
0.937981,0.00020742
0.938981,0.00019849
0.939981,0.00022378
0.940981,0.00023863
0.941981,0.00018520
0.942981,0.00016734
0.943981,0.00017978
0.944981,0.00017256
0.945981,0.00018005
0.946981,0.00016319
0.947981,0.00018607
0.948981,0.00020543
0.949981,0.00015033
0.950981,0.00022508
0.951981,0.00020438
0.952981,0.00026082
0.953981,0.00018866
0.954981,0.00016072
0.955981,0.00018838
0.956981,0.00017297
0.957981,0.00021313
0.958981,0.00012163
0.959981,0.00013633
0.960981,0.00018068
0.961981,0.00014574
0.962981,0.00018877
0.963981,0.00014505
0.964981,0.00011688
0.965981,0.00014158
0.966981,0.00012428
0.967981,0.00008662
0.968981,0.00011742
0.969981,0.00009306
0.970981,0.00016455
0.971981,0.00012432
0.972981,0.00011126
0.973981,0.00012295
0.974981,0.00010274
0.975981,0.00006168
0.976981,0.00009310
0.977981,0.00008659
0.978981,0.00009467
0.979981,0.00010553
0.980981,0.00009879
0.981981,0.00011160
0.982981,0.00011704
0.983981,0.00009745
0.984981,0.00009493
0.985981,0.00010801
0.986981,0.00005977
0.987981,0.00012493
0.988981,0.00010710
0.989981,0.00005469
0.990981,0.00011446
0.991981,0.00007656
0.992981,0.00002641
0.925354,0.00007584
0.926354,0.00011347
0.927354,0.00005803
0.928354,0.00005784
0.929354,0.00005281
0.930354,0.00010912
0.931354,0.00006474
0.932354,0.00002064
0.933354,0.00012100
0.934354,0.00005206
0.935354,0.00004081
0.936354,0.00004288
0.937354,0.00002435
0.938354,0.00004183
0.939354,0.00005750
0.940354,0.00002933
0.941354,0.00007565
0.942354,0.00002845
0.943354,0.00003105
0.944354,0.00004533
0.945354,0.00006311
0.946354,0.00003357
0.947354,0.00002838
0.948354,0.00005217
0.949354,0.00002380
0.950354,0.00003635
0.951354,-0.00000837
0.952354,-0.00000761
0.953354,0.00001003
0.954354,-0.00001076
0.955354,-0.00005306
0.956354,0.00004562
0.957354,0.00007432
0.958354,0.00000011
0.959354,0.00002477
0.960354,-0.00001391
0.961354,0.00000573
0.962354,0.00004127
0.963354,0.00004172
0.964354,-0.00003227
0.965354,0.00006065
0.966354,-0.00004850
0.967354,0.00005241
0.968354,-0.00003045
0.969354,-0.00003371
0.970354,-0.00001331
0.971354,-0.00000943
0.972354,-0.00002711
0.973354,-0.00001365
0.974354,-0.00000122
0.975354,0.00000019
0.976354,-0.00003820
0.977354,0.00003860
0.978354,0.00001780
0.979354,0.00002527
0.980354,-0.00002205
0.981354,-0.00002690
0.982354,-0.00002220
0.983354,-0.00006046
0.984354,-0.00001738
0.985354,-0.00002339
0.986354,0.00001554
0.987354,-0.00000294
0.988354,0.00002727
0.989354,0.00000841
0.990354,-0.00003379
0.991354,0.00002407
0.992354,0.00008074
0.993354,-0.00003563
0.994354,-0.00006174
0.995354,0.00002511
0.996354,-0.00000755
0.997354,-0.00000848
0.998354,-0.00002991
0.999354,-0.00004299
1.000354,0.00006473
1.001354,-0.00002261
1.002354,-0.00000816
1.003354,-0.00008281
1.004354,-0.00001833
1.005354,-0.00000325
1.006354,-0.00003250
1.007354,0.00000903
1.008354,0.00001615
1.009354,0.00005079
1.010354,0.00006495
1.011354,-0.00001024
1.012354,0.00002738
1.013354,-0.00000043
1.014354,-0.00000800
1.015354,-0.00000438
1.016354,-0.00001543
1.017354,-0.00002424
1.018354,-0.00003096
1.019354,-0.00002296
1.020354,-0.00003755
1.021354,0.00004024
1.022354,-0.00005934
1.023354,0.00000287
1.024354,-0.00007963
0.958637,0.00000691
0.959637,-0.00002408
0.960637,0.00003488
0.961637,-0.00000559
0.962637,-0.00001263
0.963637,0.00003293
0.964637,0.00005274
0.965637,-0.00000674
0.966637,0.00001118
0.967637,-0.00001358
0.968637,0.00005650
0.969637,-0.00004238
0.970637,-0.00002329
0.971637,0.00001476
0.972637,0.00000031
0.973637,0.00004599
0.974637,0.00001712
0.975637,-0.00001943
0.976637,0.00000008
0.977637,0.00003671
0.978637,-0.00002147
0.979637,-0.00004111
0.980637,-0.00000599
0.981637,-0.00004459
0.982637,-0.00000384
0.983637,-0.00000046
0.984637,-0.00000267
0.985637,-0.00003250
0.986637,-0.00004946
0.987637,-0.00003472
0.988637,0.00005264
0.989637,0.00004297
0.990637,-0.00002793
0.991637,-0.00002621
0.992637,-0.00002198
0.993637,-0.00002975
0.994637,-0.00006085
0.995637,0.00005822
0.996637,-0.00002586
0.997637,0.00000975
0.998637,-0.00006654
0.999637,-0.00000270
1.000637,-0.00000909
1.001637,-0.00000223
1.002637,-0.00001509
1.003637,0.00001130
1.004637,0.00007370
1.005637,-0.00005174
1.006637,-0.00001989
1.007637,-0.00004274
1.008637,0.00001474
1.009637,0.00004225
1.010637,0.00002409
1.011637,-0.00003440
1.012637,0.00004276
1.013637,0.00002190
1.014637,-0.00002365
1.015637,0.00001515
1.016637,-0.00003785
1.017637,-0.00002590
1.018637,-0.00000084
1.019637,-0.00001587
1.020637,0.00002219
1.021637,-0.00003731
1.022637,0.00001423
1.023637,-0.00004679
1.024637,-0.00000574
1.025637,-0.00004040
1.026637,-0.00002378
1.027637,-0.00002829
1.028637,0.00003594
1.029637,0.00004670
1.030637,-0.00003724
1.031637,0.00000210
1.032637,-0.00005077
1.033637,-0.00002770
1.034637,0.00000634
1.035637,0.00004239
1.036637,0.00005483
1.037637,-0.00001032
1.038637,0.00003264
1.039637,0.00000368
1.040637,-0.00002194
1.041637,0.00000469
1.042637,0.00000089
1.043637,-0.00005432
1.044637,0.00004533
1.045637,-0.00000755
1.046637,0.00003201
1.047637,0.00004978
1.048637,0.00000480
1.049637,-0.00001778
1.050637,0.00003016
1.051637,-0.00001251
1.052637,0.00002055
1.053637,0.00004331
1.054637,-0.00001610
1.055637,0.00004665
1.056637,-0.00000892
1.057637,-0.00001583
0.985811,0.00003690
0.986811,-0.00003849
0.987811,-0.00002167
0.988811,0.00001789
0.989811,0.00001871
0.990811,-0.00007833
0.991811,-0.00001712
0.992811,-0.00000805
0.993811,-0.00000609
0.994811,-0.00001214
0.995811,-0.00001660
0.996811,0.00001381
0.997811,0.00001902
0.998811,-0.00001215
0.999811,0.00005307
1.000811,-0.00004766
1.001811,0.00002771
1.002811,0.00003799
1.003811,-0.00000402
1.004811,-0.00002108
1.005811,0.00001053
1.006811,0.00001431
1.007811,-0.00001614
1.008811,-0.00004398
1.009811,-0.00000295
1.010811,-0.00002227
1.011811,-0.00000535
1.012811,0.00001477
1.013811,-0.00002522
1.014811,-0.00000856
1.015811,0.00001608
1.016811,-0.00000306
1.017811,-0.00000581
1.018811,0.00000746
1.019811,0.00004016
1.020811,-0.00006112
1.021811,0.00002772
1.022811,-0.00000874
1.023811,0.00004761
1.024811,-0.00003226
1.025811,0.00004182
1.026811,-0.00001819
1.027811,0.00004876
1.028811,-0.00006355
1.029811,-0.00000031
1.030811,-0.00002102
1.031811,-0.00005009
1.032811,0.00002809
1.033811,0.00003194
1.034811,-0.00002785
1.035811,0.00001299
1.036811,0.00000144
1.037811,0.00008052
1.038811,0.00003945
1.039811,0.00004355
1.040811,0.00001429
1.041811,-0.00003011
1.042811,0.00000190
1.043811,-0.00001165
1.044811,-0.00004893
1.045811,0.00002347
1.046811,0.00006081
1.047811,0.00002002
1.048811,0.00003287
1.049811,-0.00003584
1.050811,0.00002444
1.051811,0.00000129
1.052811,0.00003549
1.053811,-0.00000098
1.054811,0.00002346
1.055811,0.00001170
1.056811,0.00002954
1.057811,0.00003349
1.058811,-0.00007464
1.059811,-0.00002511
1.060811,-0.00000453
1.061811,0.00001478
1.062811,-0.00000422
1.063811,0.00002622
1.064811,0.00005441
1.065811,0.00002369
1.066811,0.00002151
1.067811,-0.00000151
1.068811,-0.00003485
1.069811,-0.00004812
1.070811,-0.00001840
1.071811,-0.00004206
1.072811,0.00001972
1.073811,-0.00000015
1.074811,-0.00004688
1.075811,-0.00001139
1.076811,-0.00000559
1.077811,0.00000677
1.078811,0.00003050
1.079811,-0.00000385
1.080811,0.00002025
1.081811,-0.00004353
1.082811,0.00003425
1.083811,0.00003225
1.084811,0.00006918
1.017057,0.00000129
1.018057,-0.00000046
1.019057,-0.00000219
1.020057,0.00000271
1.021057,-0.00001002
1.022057,0.00001406
1.023057,0.00001193
1.024057,-0.00000003
1.025057,0.00000474
1.026057,-0.00002360
1.027057,-0.00000643
1.028057,-0.00000556
1.029057,-0.00003127
1.030057,0.00002928
1.031057,-0.00000790
1.032057,0.00007729
1.033057,0.00001409
1.034057,0.00001944
1.035057,-0.00002495
1.036057,-0.00000691
1.037057,0.00004268
1.038057,-0.00002785
1.039057,0.00001279
1.040057,0.00006191
1.041057,0.00005040
1.042057,-0.00002939
1.043057,-0.00000819
1.044057,0.00001524
1.045057,-0.00004976
1.046057,0.00004823
1.047057,-0.00000821
1.048057,-0.00004590
1.049057,0.00000078
1.050057,-0.00000967
1.051057,-0.00003763
1.052057,0.00001188
1.053057,-0.00003146
1.054057,0.00000804
1.055057,-0.00005545
1.056057,0.00002372
1.057057,-0.00000530
1.058057,0.00004420
1.059057,0.00001327
1.060057,0.00005694
1.061057,0.00001191
1.062057,-0.00002959
1.063057,-0.00006410
1.064057,-0.00006247
1.065057,-0.00002369
1.066057,0.00000150
1.067057,0.00000752
1.068057,0.00003012
1.069057,-0.00000572
1.070057,-0.00003484
1.071057,0.00000136
1.072057,-0.00001439
1.073057,0.00004412
1.074057,0.00001989
1.075057,-0.00003207
1.076057,0.00006000
1.077057,-0.00005902
1.078057,0.00005988
1.079057,0.00006449
1.080057,0.00000495
1.081057,-0.00000718
1.082057,0.00004770
1.083057,0.00005485
1.084057,0.00000578
1.085057,0.00004767
1.086057,0.00001901
1.087057,-0.00001859
1.088057,0.00001976
1.089057,0.00004521
1.090057,0.00004572
1.091057,0.00007665
1.092057,0.00002528
1.093057,0.00001013
1.094057,0.00003815
1.095057,-0.00000284
1.096057,0.00003337
1.097057,0.00006412
1.098057,0.00004985
1.099057,0.00006608
1.100057,0.00006478
1.101057,0.00002508
1.102057,0.00005867
1.103057,0.00006917
1.104057,0.00002566
1.105057,0.00006742
1.106057,0.00005496
1.107057,0.00004903
1.108057,0.00008823
1.109057,0.00002701
1.110057,0.00002057
1.111057,0.00011221
1.112057,0.00004582
1.113057,0.00003727
1.114057,0.00002904
1.115057,0.00011812
1.116057,0.00002594
1.050289,0.00003265
1.051289,0.00006768
1.052289,0.00014129
1.053289,0.00009135
1.054289,0.00002795
1.055289,0.00001288
1.056289,0.00008059
1.057289,0.00013017
1.058289,0.00007041
1.059289,0.00003776
1.060289,0.00003496
1.061289,0.00006554
1.062289,0.00005072
1.063289,0.00010430
1.064289,0.00009857
1.065289,0.00002951
1.066289,0.00007184
1.067289,0.00008708
1.068289,0.00000614
1.069289,0.00008541
1.070289,0.00008996
1.071289,0.00010717
1.072289,0.00010365
1.073289,0.00010717
1.074289,0.00011590
1.075289,0.00013067
1.076289,0.00005891
1.077289,0.00008125
1.078289,0.00005416
1.079289,0.00003206
1.080289,0.00011822
1.081289,0.00007635
1.082289,0.00004678
1.083289,0.00007493
1.084289,0.00010388
1.085289,0.00006870
1.086289,0.00005761
1.087289,0.00006799
1.088289,0.00000195
1.089289,0.00008953
1.090289,0.00005175
1.091289,0.00004768
1.092289,0.00001343
1.093289,0.00010827
1.094289,0.00010454
1.095289,0.00002203
1.096289,0.00008168
1.097289,0.00006197
1.098289,0.00003079
1.099289,0.00005415
1.100289,0.00000143
1.101289,-0.00001828
1.102289,0.00008367
1.103289,0.00004027
1.104289,0.00000294
1.105289,0.00003949
1.106289,0.00004555
1.107289,0.00001243
1.108289,0.00005937
1.109289,0.00005118
1.110289,0.00000695
1.111289,0.00003163
1.112289,0.00001271
1.113289,0.00008778
1.114289,0.00003704
1.115289,0.00002936
1.116289,0.00001654
1.117289,0.00004013
1.118289,0.00002179
1.119289,0.00005784
1.120289,0.00001043
1.121289,0.00000138
1.122289,-0.00000972
1.123289,0.00001017
1.124289,-0.00001323
1.125289,0.00001562
1.126289,0.00003675
1.127289,0.00003676
1.128289,0.00001033
1.129289,-0.00001654
1.130289,0.00001242
1.131289,0.00001256
1.132289,0.00000142
1.133289,-0.00001084
1.134289,-0.00002217
1.135289,0.00002099
1.136289,0.00003830
1.137289,-0.00001547
1.138289,0.00002200
1.139289,-0.00002529
1.140289,0.00001075
1.141289,0.00002406
1.142289,0.00000039
1.143289,0.00004167
1.144289,-0.00005483
1.145289,0.00001837
1.146289,-0.00003863
1.147289,-0.00001468
1.148289,0.00000844
1.149289,0.00001024
1.075327,-0.00001340
1.076327,0.00003095
1.077327,-0.00001601
1.078327,0.00003403
1.079327,-0.00002632
1.080327,-0.00002405
1.081327,-0.00003273
1.082327,0.00005223
1.083327,-0.00008074
1.084327,0.00001933
1.085327,0.00002607
1.086327,-0.00004036
1.087327,0.00001625
1.088327,-0.00000390
1.089327,0.00000324
1.090327,0.00003894
1.091327,-0.00000459
1.092327,-0.00000319
1.093327,-0.00002456
1.094327,0.00000727
1.095327,0.00005810
1.096327,-0.00000139
1.097327,0.00002500
1.098327,0.00002649
1.099327,-0.00001849
1.100327,-0.00004171
1.101327,0.00003865
1.102327,-0.00003253
1.103327,-0.00001830
1.104327,0.00003847
1.105327,-0.00003883
1.106327,0.00000036
1.107327,-0.00001279
1.108327,-0.00001588
1.109327,0.00001067
1.110327,0.00001300
1.111327,-0.00003172
1.112327,0.00001808
1.113327,-0.00001044
1.114327,-0.00000469
1.115327,0.00005069
1.116327,0.00004294
1.117327,-0.00005376
1.118327,0.00001697
1.119327,0.00005243
1.120327,-0.00002816
1.121327,0.00002364
1.122327,0.00002547
1.123327,0.00003842
1.124327,0.00000474
1.125327,-0.00001211
1.126327,0.00001741
1.127327,-0.00000244
1.128327,-0.00004017
1.129327,0.00002864
1.130327,0.00002640
1.131327,-0.00006482
1.132327,-0.00003014
1.133327,0.00002110
1.134327,-0.00001294
1.135327,0.00001005
1.136327,-0.00000251
1.137327,-0.00001361
1.138327,0.00005167
1.139327,0.00004722
1.140327,-0.00004755
1.141327,0.00002072
1.142327,-0.00004448
1.143327,-0.00001995
1.144327,0.00000789
1.145327,0.00002644
1.146327,-0.00003503
1.147327,-0.00005311
1.148327,0.00004752
1.149327,-0.00001261
1.150327,0.00003698
1.151327,-0.00000475
1.152327,0.00000480
1.153327,0.00002304
1.154327,-0.00000426
1.155327,-0.00002543
1.156327,-0.00001649
1.157327,-0.00001671
1.158327,0.00001205
1.159327,0.00000435
1.160327,0.00001525
1.161327,0.00004324
1.162327,0.00003271
1.163327,-0.00003998
1.164327,-0.00000861
1.165327,0.00002345
1.166327,-0.00000607
1.167327,-0.00001480
1.168327,-0.00003637
1.169327,0.00002369
1.170327,0.00002430
1.171327,0.00002684
1.172327,-0.00001953
1.173327,-0.00006150
1.174327,0.00002666
1.108554,0.00004418
1.109554,0.00004822
1.110554,0.00001072
1.111554,0.00004679
1.112554,0.00001367
1.113554,-0.00001518
1.114554,-0.00001041
1.115554,-0.00005899
1.116554,-0.00006205
1.117554,-0.00002672
1.118554,-0.00000727
1.119554,0.00007058
1.120554,0.00005660
1.121554,0.00002757
1.122554,0.00012586
1.123554,0.00005016
1.124554,0.00014775
1.125554,0.00005625
1.126554,0.00021983
1.127554,0.00022889
1.128554,0.00032322
1.129554,0.00035943
1.130554,0.00036694
1.131554,0.00047978
1.132554,0.00060280
1.133554,0.00066926
1.134554,0.00080043
1.135554,0.00080277
1.136554,0.00094431
1.137554,0.00102361
1.138554,0.00109302
1.139554,0.00116638
1.140554,0.00119983
1.141554,0.00117655
1.142554,0.00121096
1.143554,0.00116292
1.144554,0.00108534
1.145554,0.00101423
1.146554,0.00096539
1.147554,0.00082594
1.148554,0.00076536
1.149554,0.00068262
1.150554,0.00058951
1.151554,0.00051633
1.152554,0.00032351
1.153554,0.00029740
1.154554,0.00021055
1.155554,0.00014887
1.156554,0.00001218
1.157554,-0.00000017
1.158554,-0.00008145
1.159554,-0.00009820
1.160554,-0.00021412
1.161554,-0.00020165
1.162554,-0.00024435
1.163554,-0.00025159
1.164554,-0.00026137
1.165554,-0.00022068
1.166554,-0.00023141
1.167554,-0.00029042
1.168554,-0.00023055
1.169554,-0.00029026
1.170554,-0.00020914
1.171554,-0.00025838
1.172554,-0.00024438
1.173554,-0.00023949
1.174554,-0.00017973
1.175554,-0.00020403
1.176554,-0.00022586
1.177554,-0.00015823
1.178554,-0.00012883
1.179554,-0.00009319
1.180554,-0.00010011
1.181554,-0.00012041
1.182554,-0.00004362
1.183554,-0.00007587
1.184554,-0.00006433
1.185554,-0.00001132
1.186554,-0.00005274
1.187554,-0.00000512
1.188554,-0.00000013
1.189554,-0.00002393
1.190554,0.00000597
1.191554,-0.00000197
1.192554,0.00002162
1.193554,0.00001728
1.194554,0.00000252
1.195554,0.00003952
1.196554,0.00000198
1.197554,0.00002328
1.198554,0.00007295
1.199554,0.00009386
1.200554,0.00011487
1.201554,-0.00001992
1.202554,0.00003690
1.203554,0.00002571
1.204554,0.00003286
1.205554,0.00005703
1.206554,0.00004595
1.207554,0.00012214
1.142722,0.00005179
1.143722,0.00004828
1.144722,0.00008089
1.145722,0.00007367
1.146722,0.00002615
1.147722,0.00009204
1.148722,0.00008186
1.149722,0.00007448
1.150722,0.00011484
1.151722,0.00013049
1.152722,0.00009106
1.153722,0.00008349
1.154722,0.00010815
1.155722,0.00010358
1.156722,0.00012800
1.157722,0.00009598
1.158722,0.00009970
1.159722,0.00011332
1.160722,0.00006672
1.161722,0.00005474
1.162722,0.00015153
1.163722,0.00008608
1.164722,0.00011456
1.165722,0.00013681
1.166722,0.00013985
1.167722,0.00009678
1.168722,0.00010059
1.169722,0.00013080
1.170722,0.00011681
1.171722,0.00014191
1.172722,0.00015946
1.173722,0.00009578
1.174722,0.00015659
1.175722,0.00018017
1.176722,0.00013865
1.177722,0.00010405
1.178722,0.00014556
1.179722,0.00015111
1.180722,0.00015755
1.181722,0.00012118
1.182722,0.00018841
1.183722,0.00018849
1.184722,0.00018257
1.185722,0.00018122
1.186722,0.00016992
1.187722,0.00017468
1.188722,0.00023482
1.189722,0.00019606
1.190722,0.00021207
1.191722,0.00018545
1.192722,0.00017930
1.193722,0.00023411
1.194722,0.00017597
1.195722,0.00024805
1.196722,0.00025375
1.197722,0.00024908
1.198722,0.00024587
1.199722,0.00028108
1.200722,0.00022205
1.201722,0.00022716
1.202722,0.00021551
1.203722,0.00015688
1.204722,0.00019831
1.205722,0.00016163
1.206722,0.00024012
1.207722,0.00024565
1.208722,0.00020897
1.209722,0.00023936
1.210722,0.00022895
1.211722,0.00014891
1.212722,0.00021971
1.213722,0.00015849
1.214722,0.00017008
1.215722,0.00022233
1.216722,0.00029864
1.217722,0.00021792
1.218722,0.00024514
1.219722,0.00025689
1.220722,0.00023841
1.221722,0.00021357
1.222722,0.00019275
1.223722,0.00020901
1.224722,0.00018328
1.225722,0.00021343
1.226722,0.00024261
1.227722,0.00020793
1.228722,0.00022015
1.229722,0.00014915
1.230722,0.00018143
1.231722,0.00019655
1.232722,0.00012445
1.233722,0.00013083
1.234722,0.00020801
1.235722,0.00021658
1.236722,0.00018472
1.237722,0.00019057
1.238722,0.00017200
1.239722,0.00017749
1.240722,0.00016539
1.241722,0.00017432
1.176078,0.00019202
1.177078,0.00017033
1.178078,0.00012525
1.179078,0.00010430
1.180078,0.00015002
1.181078,0.00017932
1.182078,0.00019659
1.183078,0.00016188
1.184078,0.00010842
1.185078,0.00011842
1.186078,0.00012552
1.187078,0.00013830
1.188078,0.00013273
1.189078,0.00013456
1.190078,0.00008697
1.191078,0.00009246
1.192078,0.00006916
1.193078,0.00008305
1.194078,0.00008191
1.195078,0.00013368
1.196078,0.00010194
1.197078,0.00008527
1.198078,0.00005597
1.199078,0.00009782
1.200078,0.00011163
1.201078,0.00011273
1.202078,0.00011143
1.203078,0.00008076
1.204078,0.00003596
1.205078,0.00010747
1.206078,0.00008707
1.207078,0.00011707
1.208078,0.00010749
1.209078,0.00008334
1.210078,0.00007767
1.211078,0.00009967
1.212078,0.00003727
1.213078,0.00005471
1.214078,0.00001828
1.215078,0.00010738
1.216078,0.00007435
1.217078,0.00002156
1.218078,0.00005215
1.219078,0.00002479
1.220078,-0.00000839
1.221078,0.00001671
1.222078,0.00005515
1.223078,0.00006526
1.224078,0.00002885
1.225078,-0.00002309
1.226078,0.00006125
1.227078,0.00003880
1.228078,0.00003396
1.229078,0.00007510
1.230078,-0.00005005
1.231078,0.00001807
1.232078,0.00003930
1.233078,-0.00001394
1.234078,0.00001390
1.235078,-0.00000127
1.236078,0.00000834
1.237078,0.00001391
1.238078,0.00001972
1.239078,0.00001203
1.240078,-0.00002340
1.241078,0.00007134
1.242078,0.00006058
1.243078,-0.00000441
1.244078,0.00003988
1.245078,-0.00001177
1.246078,-0.00003964
1.247078,0.00008639
1.248078,-0.00003984
1.249078,-0.00002578
1.250078,-0.00001142
1.251078,-0.00002737
1.252078,0.00005146
1.253078,-0.00000043
1.254078,0.00003840
1.255078,0.00003019
1.256078,-0.00001314
1.257078,0.00001749
1.258078,0.00002160
1.259078,-0.00000877
1.260078,-0.00003410
1.261078,0.00003606
1.262078,-0.00000135
1.263078,-0.00001880
1.264078,-0.00000111
1.265078,-0.00001593
1.266078,0.00003983
1.267078,0.00000174
1.268078,-0.00003867
1.269078,-0.00002980
1.270078,0.00002429
1.271078,0.00000461
1.272078,-0.00008350
1.273078,0.00003012
1.274078,0.00001691
1.275078,0.00000476
1.209540,-0.00001155
1.210540,-0.00000915
1.211540,-0.00000659
1.212540,0.00000662
1.213540,-0.00004940
1.214540,0.00004131
1.215540,-0.00002704
1.216540,0.00002427
1.217540,-0.00002512
1.218540,-0.00001040
1.219540,-0.00000098
1.220540,0.00000902
1.221540,0.00001508
1.222540,0.00006076
1.223540,-0.00001898
1.224540,-0.00000087
1.225540,-0.00003697
1.226540,-0.00002168
1.227540,0.00002061
1.228540,0.00002607
1.229540,0.00000360
1.230540,0.00003243
1.231540,0.00000649
1.232540,-0.00000623
1.233540,-0.00005650
1.234540,0.00000226
1.235540,0.00000018
1.236540,-0.00004588
1.237540,0.00004312
1.238540,0.00002917
1.239540,-0.00000662
1.240540,0.00002937
1.241540,0.00001028
1.242540,0.00001754
1.243540,-0.00001785
1.244540,-0.00008311
1.245540,0.00000043
1.246540,0.00001452
1.247540,0.00001727
1.248540,0.00007249
1.249540,0.00002744
1.250540,-0.00000319
1.251540,0.00001829
1.252540,0.00002812
1.253540,0.00002440
1.254540,0.00002475
1.255540,0.00001566
1.256540,-0.00002178
1.257540,0.00004611
1.258540,-0.00002151
1.259540,-0.00000891
1.260540,-0.00002987
1.261540,-0.00001723
1.262540,0.00000946
1.263540,-0.00006935
1.264540,0.00001462
1.265540,-0.00001048
1.266540,0.00006711
1.267540,0.00002134
1.268540,0.00002133
1.269540,0.00000423
1.270540,0.00000924
1.271540,0.00006116
1.272540,0.00002331
1.273540,0.00000012
1.274540,0.00001290
1.275540,0.00003784
1.276540,0.00000968
1.277540,0.00000080
1.278540,-0.00001048
1.279540,0.00001914
1.280540,-0.00001617
1.281540,0.00005667
1.282540,0.00001799
1.283540,0.00001663
1.284540,-0.00003108
1.285540,0.00003782
1.286540,0.00001337
1.287540,-0.00003391
1.288540,-0.00001913
1.289540,-0.00000110
1.290540,-0.00002361
1.291540,-0.00000758
1.292540,0.00006208
1.293540,-0.00001504
1.294540,-0.00003290
1.295540,0.00000538
1.296540,0.00002769
1.297540,0.00002131
1.298540,0.00004499
1.299540,0.00002952
1.300540,-0.00004228
1.301540,-0.00003392
1.302540,0.00001409
1.303540,0.00001773
1.304540,-0.00004222
1.305540,-0.00002387
1.306540,0.00000612
1.307540,-0.00001765
1.308540,0.00003806
1.242636,-0.00000018
1.243636,0.00003317
1.244636,0.00001155
1.245636,0.00001008
1.246636,-0.00004626
1.247636,-0.00005346
1.248636,0.00001027
1.249636,0.00005363
1.250636,-0.00000250
1.251636,0.00004928
1.252636,-0.00002199
1.253636,-0.00004190
1.254636,0.00001279
1.255636,0.00001283
1.256636,-0.00001181
1.257636,0.00004397
1.258636,-0.00002037
1.259636,-0.00002807
1.260636,-0.00000609
1.261636,-0.00000026
1.262636,0.00000447
1.263636,-0.00003954
1.264636,0.00000126
1.265636,0.00006143
1.266636,0.00002735
1.267636,0.00001092
1.268636,-0.00000477
1.269636,0.00002963
1.270636,0.00005361
1.271636,-0.00001171
1.272636,0.00004154
1.273636,-0.00003970
1.274636,-0.00000241
1.275636,0.00000071
1.276636,-0.00000833
1.277636,0.00006368
1.278636,-0.00001989
1.279636,-0.00000443
1.280636,-0.00005622
1.281636,0.00001453
1.282636,0.00003568
1.283636,0.00001405
1.284636,-0.00002880
1.285636,-0.00004985
1.286636,0.00000963
1.287636,0.00002698
1.288636,-0.00004209
1.289636,-0.00007534
1.290636,0.00004337
1.291636,0.00003990
1.292636,0.00001640
1.293636,0.00005172
1.294636,0.00004831
1.295636,-0.00000826
1.296636,0.00001041
1.297636,-0.00002120
1.298636,-0.00000994
1.299636,0.00003907
1.300636,0.00003411
1.301636,0.00001593
1.302636,-0.00000216
1.303636,-0.00000293
1.304636,0.00006817
1.305636,0.00001971
1.306636,-0.00004334
1.307636,-0.00000788
1.308636,0.00001297
1.309636,0.00003425
1.310636,0.00000380
1.311636,-0.00002118
1.312636,-0.00002226
1.313636,-0.00001064
1.314636,0.00001356
1.315636,0.00005373
1.316636,0.00004782
1.317636,-0.00005408
1.318636,0.00004187
1.319636,0.00004711
1.320636,-0.00006434
1.321636,0.00000500
1.322636,0.00006459
1.323636,0.00003188
1.324636,0.00001542
1.325636,0.00004961
1.326636,-0.00002010
1.327636,0.00005968
1.328636,0.00001782
1.329636,0.00004779
1.330636,0.00002125
1.331636,-0.00000992
1.332636,0.00000110
1.333636,-0.00005243
1.334636,-0.00000432
1.335636,-0.00002393
1.336636,0.00001520
1.337636,0.00001205
1.338636,-0.00001863
1.339636,-0.00001153
1.340636,0.00000029
1.341636,0.00001204
1.275975,-0.00003554
1.276975,0.00003145
1.277975,0.00001740
1.278975,-0.00001476
1.279975,0.00005186
1.280975,0.00005161
1.281975,0.00002167
1.282975,-0.00004793
1.283975,-0.00002601
1.284975,-0.00003409
1.285975,-0.00003246
1.286975,-0.00002729
1.287975,0.00002813
1.288975,0.00000925
1.289975,-0.00000170
1.290975,0.00001716
1.291975,0.00001465
1.292975,0.00003644
1.293975,-0.00003197
1.294975,0.00004490
1.295975,-0.00003179
1.296975,0.00003012
1.297975,-0.00000642
1.298975,-0.00000157
1.299975,0.00000995
1.300975,-0.00000571
1.301975,-0.00001914
1.302975,0.00003569
1.303975,-0.00003296
1.304975,-0.00000396
1.305975,-0.00005714
1.306975,0.00005097
1.307975,-0.00000699
1.308975,0.00002496
1.309975,0.00001065
1.310975,-0.00002324
1.311975,-0.00000155
1.312975,-0.00000723
1.313975,-0.00000671
1.314975,-0.00001961
1.315975,0.00002061
1.316975,-0.00002722
1.317975,-0.00001718
1.318975,-0.00000998
1.319975,0.00002791
1.320975,0.00004209
1.321975,-0.00002863
1.322975,-0.00000158
1.323975,0.00000772
1.324975,-0.00004909
1.325975,0.00004713
1.326975,-0.00003051
1.327975,0.00002051
1.328975,0.00003524
1.329975,-0.00003119
1.330975,0.00000226
1.331975,-0.00001414
1.332975,-0.00005164
1.333975,-0.00000956
1.334975,-0.00002324
1.335975,-0.00001817
1.336975,-0.00001152
1.337975,0.00000186
1.338975,0.00006560
1.339975,-0.00003484
1.340975,-0.00001600
1.341975,-0.00001261
1.342975,0.00002750
1.343975,0.00001662
1.344975,-0.00000425
1.345975,-0.00000161
1.346975,-0.00002073
1.347975,0.00000795
1.348975,-0.00003965
1.349975,-0.00004133
1.350975,0.00002492
1.351975,0.00002442
1.352975,0.00002242
1.353975,0.00003616
1.354975,-0.00001620
1.355975,0.00001453
1.356975,0.00000167
1.357975,-0.00000400
1.358975,0.00003711
1.359975,-0.00001625
1.360975,0.00001421
1.361975,0.00000229
1.362975,0.00004805
1.363975,0.00002574
1.364975,0.00000515
1.365975,0.00001909
1.366975,-0.00005570
1.367975,0.00001284
1.368975,0.00008692
1.369975,0.00001956
1.370975,0.00001224
1.371975,0.00001651
1.372975,-0.00001319
1.373975,-0.00003892
1.374975,0.00008342
1.301700,0.00003065
1.302700,0.00002424
1.303700,0.00001623
1.304700,0.00002651
1.305700,0.00000326
1.306700,0.00004611
1.307700,0.00002097
1.308700,0.00000771
1.309700,0.00002976
1.310700,0.00006949
1.311700,0.00006257
1.312700,-0.00000342
1.313700,0.00001426
1.314700,0.00005077
1.315700,0.00006576
1.316700,0.00005428
1.317700,0.00003676
1.318700,0.00008077
1.319700,-0.00002648
1.320700,0.00003825
1.321700,0.00009091
1.322700,0.00007544
1.323700,0.00003555
1.324700,0.00009759
1.325700,0.00004569
1.326700,0.00001655
1.327700,0.00005554
1.328700,0.00001894
1.329700,0.00007121
1.330700,0.00010703
1.331700,0.00004578
1.332700,0.00008125
1.333700,0.00001638
1.334700,0.00007112
1.335700,0.00006418
1.336700,0.00008470
1.337700,0.00012912
1.338700,0.00002002
1.339700,0.00006718
1.340700,0.00002330
1.341700,0.00007590
1.342700,0.00004315
1.343700,0.00008640
1.344700,0.00007555
1.345700,0.00008162
1.346700,0.00010588
1.347700,0.00004725
1.348700,0.00008369
1.349700,0.00011273
1.350700,0.00009931
1.351700,0.00006839
1.352700,0.00010976
1.353700,0.00006160
1.354700,0.00006095
1.355700,0.00012332
1.356700,0.00008743
1.357700,0.00008370
1.358700,0.00008120
1.359700,0.00004213
1.360700,0.00010831
1.361700,0.00007374
1.362700,0.00004615
1.363700,0.00006566
1.364700,0.00000615
1.365700,0.00001151
1.366700,0.00006909
1.367700,0.00001106
1.368700,0.00007393
1.369700,0.00000595
1.370700,0.00009319
1.371700,0.00007905
1.372700,0.00004235
1.373700,0.00002445
1.374700,0.00009358
1.375700,0.00008101
1.376700,0.00004631
1.377700,0.00011117
1.378700,0.00007748
1.379700,0.00004147
1.380700,0.00005120
1.381700,0.00011517
1.382700,0.00004391
1.383700,0.00006657
1.384700,0.00008291
1.385700,0.00008551
1.386700,0.00009615
1.387700,0.00003935
1.388700,0.00004835
1.389700,0.00002249
1.390700,0.00006586
1.391700,-0.00001035
1.392700,0.00005437
1.393700,0.00002438
1.394700,0.00003039
1.395700,0.00004490
1.396700,0.00006184
1.397700,0.00006404
1.398700,0.00004089
1.399700,0.00004596
1.400700,0.00006875
1.334444,0.00003514
1.335444,0.00004142
1.336444,-0.00000289
1.337444,0.00003621
1.338444,-0.00001925
1.339444,0.00000750
1.340444,0.00001391
1.341444,0.00005584
1.342444,0.00003255
1.343444,0.00003473
1.344444,0.00001675
1.345444,-0.00007630
1.346444,-0.00000516
1.347444,0.00003720
1.348444,-0.00000256
1.349444,-0.00000626
1.350444,-0.00000540
1.351444,-0.00003164
1.352444,0.00000017
1.353444,-0.00000771
1.354444,0.00006401
1.355444,0.00000095
1.356444,-0.00000627
1.357444,0.00007283
1.358444,-0.00004276
1.359444,0.00001883
1.360444,0.00003148
1.361444,-0.00000755
1.362444,0.00001681
1.363444,0.00000136
1.364444,0.00002957
1.365444,0.00001101
1.366444,-0.00002785
1.367444,0.00002099
1.368444,0.00001739
1.369444,0.00000704
1.370444,0.00000250
1.371444,0.00004567
1.372444,-0.00000211
1.373444,0.00003222
1.374444,0.00005470
1.375444,0.00002582
1.376444,-0.00004426
1.377444,0.00000632
1.378444,-0.00003915
1.379444,-0.00001370
1.380444,0.00000713
1.381444,-0.00001102
1.382444,-0.00002000
1.383444,-0.00001596
1.384444,0.00004160
1.385444,0.00004555
1.386444,0.00003526
1.387444,0.00004051
1.388444,0.00003792
1.389444,-0.00001842
1.390444,-0.00002378
1.391444,0.00001440
1.392444,-0.00000385
1.393444,-0.00003682
1.394444,0.00000620
1.395444,-0.00002196
1.396444,-0.00004717
1.397444,0.00002770
1.398444,0.00000403
1.399444,-0.00000434
1.400444,0.00001827
1.401444,0.00007725
1.402444,-0.00005690
1.403444,0.00003406
1.404444,0.00000511
1.405444,0.00001683
1.406444,0.00001710
1.407444,0.00002935
1.408444,-0.00003480
1.409444,-0.00000159
1.410444,0.00002792
1.411444,0.00001027
1.412444,-0.00001557
1.413444,-0.00001096
1.414444,0.00001113
1.415444,0.00005966
1.416444,0.00000539
1.417444,0.00003270
1.418444,0.00000496
1.419444,-0.00003238
1.420444,-0.00003916
1.421444,-0.00002565
1.422444,0.00001613
1.423444,0.00000971
1.424444,0.00001947
1.425444,-0.00005061
1.426444,0.00003191
1.427444,0.00001899
1.428444,-0.00000986
1.429444,-0.00000957
1.430444,-0.00001081
1.431444,-0.00005007
1.432444,-0.00000666
1.433444,-0.00001771
1.367675,0.00006341
1.368675,0.00002979
1.369675,-0.00005226
1.370675,-0.00005529
1.371675,-0.00003254
1.372675,-0.00001920
1.373675,0.00003539
1.374675,-0.00001056
1.375675,0.00000035
1.376675,-0.00001808
1.377675,0.00004349
1.378675,0.00000291
1.379675,-0.00006118
1.380675,-0.00005131
1.381675,-0.00006733
1.382675,0.00001326
1.383675,-0.00002171
1.384675,-0.00002565
1.385675,0.00003840
1.386675,-0.00000606
1.387675,0.00002885
1.388675,-0.00003980
1.389675,-0.00000514
1.390675,-0.00002190
1.391675,-0.00004975
1.392675,0.00002357
1.393675,0.00006169
1.394675,0.00000503
1.395675,-0.00004253
1.396675,0.00002543
1.397675,-0.00001623
1.398675,-0.00000099
1.399675,-0.00002938
1.400675,-0.00002425
1.401675,-0.00001467
1.402675,0.00002052
1.403675,-0.00003883
1.404675,-0.00002352
1.405675,-0.00002646
1.406675,-0.00002235
1.407675,0.00001653
1.408675,0.00002099
1.409675,0.00007364
1.410675,0.00005437
1.411675,0.00002004
1.412675,0.00003151
1.413675,0.00007989
1.414675,0.00005408
1.415675,0.00008958
1.416675,0.00007537
1.417675,0.00011869
1.418675,0.00014555
1.419675,0.00020778
1.420675,0.00024116
1.421675,0.00029963
1.422675,0.00045173
1.423675,0.00048587
1.424675,0.00056155
1.425675,0.00067965
1.426675,0.00075355
1.427675,0.00086565
1.428675,0.00100613
1.429675,0.00103467
1.430675,0.00106105
1.431675,0.00109582
1.432675,0.00112656
1.433675,0.00119618
1.434675,0.00117389
1.435675,0.00116645
1.436675,0.00113853
1.437675,0.00105340
1.438675,0.00097951
1.439675,0.00087607
1.440675,0.00083208
1.441675,0.00071436
1.442675,0.00067632
1.443675,0.00049826
1.444675,0.00042009
1.445675,0.00029983
1.446675,0.00020192
1.447675,0.00015907
1.448675,0.00006986
1.449675,0.00004298
1.450675,-0.00006671
1.451675,-0.00006421
1.452675,-0.00011482
1.453675,-0.00018459
1.454675,-0.00018586
1.455675,-0.00019671
1.456675,-0.00023664
1.457675,-0.00024222
1.458675,-0.00019869
1.459675,-0.00023297
1.460675,-0.00028906
1.461675,-0.00031313
1.462675,-0.00025602
1.463675,-0.00023807
1.464675,-0.00018236
1.465675,-0.00018244
1.466675,-0.00023593
1.400961,-0.00023754
1.401961,-0.00013890
1.402961,-0.00010822
1.403961,-0.00017992
1.404961,-0.00018063
1.405961,-0.00011566
1.406961,-0.00004715
1.407961,-0.00005157
1.408961,-0.00005497
1.409961,-0.00003859
1.410961,-0.00001263
1.411961,-0.00007124
1.412961,0.00003339
1.413961,-0.00002980
1.414961,-0.00003870
1.415961,-0.00000525
1.416961,0.00002397
1.417961,0.00001122
1.418961,-0.00002980
1.419961,0.00002266
1.420961,0.00002371
1.421961,0.00003092
1.422961,0.00000623
1.423961,0.00002531
1.424961,0.00006628
1.425961,0.00003093
1.426961,0.00003910
1.427961,0.00003256
1.428961,0.00002684
1.429961,0.00010634
1.430961,0.00004878
1.431961,0.00005367
1.432961,0.00004245
1.433961,0.00008195
1.434961,0.00012468
1.435961,0.00012474
1.436961,0.00006181
1.437961,0.00010578
1.438961,0.00008193
1.439961,0.00010020
1.440961,0.00005972
1.441961,0.00009133
1.442961,0.00012680
1.443961,0.00005469
1.444961,0.00009922
1.445961,0.00011669
1.446961,0.00011372
1.447961,0.00011125
1.448961,0.00010489
1.449961,0.00010694
1.450961,0.00015265
1.451961,0.00014642
1.452961,0.00011934
1.453961,0.00011798
1.454961,0.00008081
1.455961,0.00008147
1.456961,0.00012884
1.457961,0.00012792
1.458961,0.00016140
1.459961,0.00011689
1.460961,0.00004349
1.461961,0.00009963
1.462961,0.00015157
1.463961,0.00011043
1.464961,0.00017550
1.465961,0.00018556
1.466961,0.00009433
1.467961,0.00014016
1.468961,0.00014017
1.469961,0.00024840
1.470961,0.00017854
1.471961,0.00016526
1.472961,0.00011905
1.473961,0.00017417
1.474961,0.00018105
1.475961,0.00021483
1.476961,0.00021919
1.477961,0.00015824
1.478961,0.00016103
1.479961,0.00020194
1.480961,0.00025692
1.481961,0.00020328
1.482961,0.00019052
1.483961,0.00021914
1.484961,0.00022828
1.485961,0.00021553
1.486961,0.00016352
1.487961,0.00023046
1.488961,0.00021778
1.489961,0.00024987
1.490961,0.00021646
1.491961,0.00023266
1.492961,0.00024517
1.493961,0.00018919
1.494961,0.00024802
1.495961,0.00022064
1.496961,0.00024858
1.497961,0.00023893
1.498961,0.00028002
1.499961,0.00019536
1.427362,0.00026128
1.428362,0.00025456
1.429362,0.00024314
1.430362,0.00024018
1.431362,0.00023688
1.432362,0.00027168
1.433362,0.00023402
1.434362,0.00018583
1.435362,0.00023695
1.436362,0.00026298
1.437362,0.00019639
1.438362,0.00021906
1.439362,0.00020095
1.440362,0.00016287
1.441362,0.00020306
1.442362,0.00018107
1.443362,0.00019333
1.444362,0.00017618
1.445362,0.00022667
1.446362,0.00023724
1.447362,0.00017478
1.448362,0.00016222
1.449362,0.00020422
1.450362,0.00020331
1.451362,0.00017912
1.452362,0.00019303
1.453362,0.00019201
1.454362,0.00012480
1.455362,0.00013678
1.456362,0.00015360
1.457362,0.00014710
1.458362,0.00016487
1.459362,0.00016790
1.460362,0.00018028
1.461362,0.00020035
1.462362,0.00016063
1.463362,0.00016955
1.464362,0.00014076
1.465362,0.00008786
1.466362,0.00016677
1.467362,0.00014275
1.468362,0.00016656
1.469362,0.00014476
1.470362,0.00015175
1.471362,0.00012052
1.472362,0.00016126
1.473362,0.00008978
1.474362,0.00008053
1.475362,0.00013285
1.476362,0.00016306
1.477362,0.00011791
1.478362,0.00011258
1.479362,0.00013140
1.480362,0.00010587
1.481362,0.00008313
1.482362,0.00009580
1.483362,0.00003975
1.484362,0.00012449
1.485362,0.00011835
1.486362,0.00004996
1.487362,0.00013676
1.488362,0.00004315
1.489362,0.00004092
1.490362,0.00009428
1.491362,0.00004736
1.492362,0.00000289
1.493362,0.00008042
1.494362,0.00008303
1.495362,0.00009998
1.496362,0.00004256
1.497362,0.00001979
1.498362,0.00005138
1.499362,0.00005308
1.500362,0.00004023
1.501362,0.00007776
1.502362,0.00006885
1.503362,0.00006332
1.504362,0.00004013
1.505362,0.00005954
1.506362,0.00010899
1.507362,0.00004899
1.508362,0.00000476
1.509362,0.00004131
1.510362,0.00004698
1.511362,0.00002980
1.512362,0.00005005
1.513362,0.00008979
1.514362,-0.00000548
1.515362,0.00007020
1.516362,-0.00002354
1.517362,-0.00006065
1.518362,0.00001953
1.519362,0.00009479
1.520362,0.00001601
1.521362,0.00000436
1.522362,0.00003220
1.523362,0.00000476
1.524362,0.00004636
1.525362,0.00004015
1.526362,-0.00000276
1.451336,0.00000897
1.452336,-0.00000848
1.453336,0.00009926
1.454336,-0.00000526
1.455336,0.00003557
1.456336,-0.00000322
1.457336,0.00004606
1.458336,0.00001312
1.459336,-0.00006012
1.460336,0.00000121
1.461336,0.00000388
1.462336,-0.00000523
1.463336,0.00000366
1.464336,0.00002033
1.465336,0.00002446
1.466336,0.00001691
1.467336,0.00000813
1.468336,0.00003946
1.469336,-0.00004939
1.470336,0.00001385
1.471336,0.00002879
1.472336,0.00004228
1.473336,-0.00005656
1.474336,0.00003177
1.475336,-0.00002100
1.476336,-0.00000937
1.477336,-0.00001093
1.478336,0.00007720
1.479336,-0.00002737
1.480336,-0.00004146
1.481336,-0.00003468
1.482336,0.00000382
1.483336,-0.00001434
1.484336,-0.00000451
1.485336,0.00000391
1.486336,0.00002928
1.487336,0.00005437
1.488336,0.00000102
1.489336,-0.00005220
1.490336,-0.00000669
1.491336,0.00001310
1.492336,-0.00005000
1.493336,0.00002628
1.494336,0.00003440
1.495336,-0.00001500
1.496336,-0.00003434
1.497336,-0.00004482
1.498336,0.00001196
1.499336,-0.00002405
1.500336,0.00004518
1.501336,-0.00001844
1.502336,-0.00001644
1.503336,-0.00002989
1.504336,-0.00001744
1.505336,0.00001281
1.506336,0.00000161
1.507336,0.00002939
1.508336,-0.00000045
1.509336,0.00000856
1.510336,0.00003339
1.511336,-0.00000915
1.512336,0.00002476
1.513336,0.00000361
1.514336,0.00001766
1.515336,-0.00003374
1.516336,-0.00000653
1.517336,0.00002959
1.518336,-0.00001935
1.519336,0.00001021
1.520336,-0.00000844
1.521336,0.00004082
1.522336,-0.00002560
1.523336,-0.00001668
1.524336,-0.00000340
1.525336,-0.00002032
1.526336,0.00002972
1.527336,0.00004032
1.528336,-0.00000823
1.529336,-0.00004994
1.530336,-0.00000040
1.531336,0.00001374
1.532336,0.00000153
1.533336,0.00004282
1.534336,-0.00003188
1.535336,-0.00000048
1.536336,-0.00005447
1.537336,-0.00000520
1.538336,-0.00001757
1.539336,-0.00003962
1.540336,0.00000086
1.541336,0.00004161
1.542336,0.00002450
1.543336,0.00006333
1.544336,-0.00001471
1.545336,0.00003788
1.546336,0.00002035
1.547336,0.00000571
1.548336,-0.00002039
1.549336,-0.00003478
1.550336,-0.00002006
1.485002,-0.00001163
1.486002,0.00004314
1.487002,0.00001055
1.488002,-0.00000482
1.489002,-0.00001485
1.490002,0.00000144
1.491002,-0.00001295
1.492002,-0.00002787
1.493002,-0.00007776
1.494002,-0.00001757
1.495002,0.00001506
1.496002,0.00002376
1.497002,-0.00000152
1.498002,0.00003162
1.499002,0.00003740
1.500002,0.00000449
1.501002,0.00003451
1.502002,0.00002706
1.503002,0.00003490
1.504002,-0.00000951
1.505002,-0.00000950
1.506002,0.00000680
1.507002,0.00005312
1.508002,-0.00002852
1.509002,-0.00004073
1.510002,-0.00001491
1.511002,0.00003923
1.512002,0.00003488
1.513002,-0.00001309
1.514002,0.00003459
1.515002,-0.00004638
1.516002,0.00000241
1.517002,0.00002014
1.518002,0.00004593
1.519002,-0.00000130
1.520002,-0.00005012
1.521002,0.00000551
1.522002,-0.00003607
1.523002,0.00000069
1.524002,0.00001688
1.525002,-0.00003362
1.526002,-0.00000390
1.527002,-0.00000681
1.528002,0.00000360
1.529002,-0.00000435
1.530002,0.00001058
1.531002,0.00000201
1.532002,0.00000049
1.533002,0.00003612
1.534002,0.00003896
1.535002,-0.00002550
1.536002,0.00002565
1.537002,-0.00004080
1.538002,0.00003715
1.539002,0.00003738
1.540002,0.00000416
1.541002,0.00004058
1.542002,-0.00006534
1.543002,0.00001019
1.544002,-0.00007143
1.545002,-0.00000299
1.546002,-0.00003762
1.547002,0.00001583
1.548002,0.00001662
1.549002,0.00001340
1.550002,-0.00000650
1.551002,0.00000694
1.552002,0.00001109
1.553002,-0.00002687
1.554002,0.00002935
1.555002,0.00000816
1.556002,0.00000936
1.557002,0.00000638
1.558002,0.00001678
1.559002,-0.00000051
1.560002,0.00001395
1.561002,-0.00002451
1.562002,0.00001412
1.563002,-0.00002735
1.564002,0.00003527
1.565002,0.00001715
1.566002,0.00002872
1.567002,-0.00002256
1.568002,0.00000361
1.569002,0.00002808
1.570002,0.00004686
1.571002,-0.00001058
1.572002,0.00004026
1.573002,0.00002006
1.574002,0.00001338
1.575002,0.00001133
1.576002,0.00003392
1.577002,0.00001877
1.578002,-0.00000237
1.579002,-0.00002812
1.580002,0.00001559
1.581002,-0.00003088
1.582002,-0.00005013
1.583002,-0.00003373
1.584002,-0.00001492
1.532089,-0.00001324
1.533089,0.00000766
1.534089,0.00000118
1.535089,-0.00005969
1.536089,0.00000569
1.537089,0.00001755
1.538089,0.00001852
1.539089,0.00004448
1.540089,0.00009860
1.541089,0.00001627
1.542089,0.00001928
1.543089,0.00001203
1.544089,0.00002042
1.545089,0.00000068
1.546089,0.00003297
1.547089,0.00002039
1.548089,-0.00005977
1.549089,-0.00002811
1.550089,0.00000422
1.551089,0.00000898
1.552089,-0.00000212
1.553089,0.00001679
1.554089,-0.00002866
1.555089,0.00003554
1.556089,0.00002408
1.557089,-0.00001613
1.558089,0.00001235
1.559089,-0.00002176
1.560089,0.00001854
1.561089,-0.00001474
1.562089,0.00002168
1.563089,0.00006516
1.564089,0.00003677
1.565089,-0.00003762
1.566089,0.00001907
1.567089,-0.00002547
1.568089,-0.00000253
1.569089,0.00002007
1.570089,0.00002145
1.571089,0.00002001
1.572089,-0.00002633
1.573089,-0.00003729
1.574089,0.00002625
1.575089,0.00002037
1.576089,-0.00001522
1.577089,0.00005749
1.578089,0.00001252
1.579089,0.00001349
1.580089,-0.00004120
1.581089,-0.00001394
1.582089,-0.00003359
1.583089,0.00004418
1.584089,-0.00004153
1.585089,-0.00001680
1.586089,-0.00005701
1.587089,-0.00007474
1.588089,-0.00004456
1.589089,-0.00001837
1.590089,0.00002338
1.591089,-0.00001530
1.592089,-0.00000860
1.593089,0.00000523
1.594089,0.00002142
1.595089,-0.00004027
1.596089,-0.00001341
1.597089,0.00002609
1.598089,0.00000381
1.599089,-0.00001365
1.600089,-0.00000263
1.601089,-0.00005862
1.602089,-0.00004494
1.603089,0.00000503
1.604089,-0.00002934
1.605089,-0.00003835
1.606089,0.00001279
1.607089,-0.00002404
1.608089,0.00000909
1.609089,0.00000297
1.610089,-0.00004587
1.611089,0.00000642
1.612089,-0.00001482
1.613089,-0.00003160
1.614089,-0.00002634
1.615089,-0.00003292
1.616089,-0.00005837
1.617089,0.00002372
1.618089,-0.00003594
1.619089,0.00001502
1.620089,0.00002351
1.621089,-0.00003290
1.622089,-0.00002820
1.623089,-0.00001493
1.624089,0.00002360
1.625089,0.00001403
1.626089,0.00001446
1.627089,-0.00003818
1.628089,-0.00001178
1.629089,-0.00000088
1.630089,0.00004575
1.631089,0.00000302
1.563824,-0.00005509
1.564824,0.00001828
1.565824,0.00003792
1.566824,-0.00001585
1.567824,0.00001606
1.568824,-0.00002473
1.569824,-0.00002967
1.570824,0.00003885
1.571824,0.00004107
1.572824,0.00005178
1.573824,-0.00000036
1.574824,-0.00003414
1.575824,-0.00001853
1.576824,-0.00003071
1.577824,0.00000815
1.578824,-0.00000524
1.579824,0.00001950
1.580824,0.00000469
1.581824,0.00001717
1.582824,0.00010338
1.583824,0.00001768
1.584824,0.00000569
1.585824,-0.00002297
1.586824,0.00002072
1.587824,-0.00001947
1.588824,0.00002452
1.589824,0.00004337
1.590824,0.00006510
1.591824,0.00002775
1.592824,-0.00001643
1.593824,-0.00000819
1.594824,0.00006086
1.595824,0.00001300
1.596824,-0.00000803
1.597824,0.00005433
1.598824,0.00009762
1.599824,0.00009032
1.600824,0.00003855
1.601824,0.00002783
1.602824,0.00003351
1.603824,0.00000762
1.604824,-0.00001338
1.605824,0.00001121
1.606824,0.00002145
1.607824,0.00004404
1.608824,0.00005125
1.609824,0.00000037
1.610824,0.00008613
1.611824,0.00004129
1.612824,0.00002540
1.613824,0.00006801
1.614824,0.00005964
1.615824,0.00003398
1.616824,0.00003249
1.617824,0.00002847
1.618824,0.00005190
1.619824,0.00005405
1.620824,0.00005679
1.621824,0.00003093
1.622824,0.00006280
1.623824,0.00006438
1.624824,0.00003786
1.625824,0.00002112
1.626824,0.00012033
1.627824,0.00004584
1.628824,0.00003415
1.629824,0.00010203
1.630824,0.00009583
1.631824,0.00005552
1.632824,0.00010170
1.633824,0.00006828
1.634824,0.00008129
1.635824,0.00005799
1.636824,0.00011652
1.637824,0.00012226
1.638824,0.00013518
1.639824,0.00004660
1.640824,0.00002568
1.641824,0.00005706
1.642824,0.00007939
1.643824,0.00002235
1.644824,0.00009157
1.645824,0.00012129
1.646824,0.00003279
1.647824,0.00002826
1.648824,0.00009511
1.649824,0.00003933
1.650824,0.00006485
1.651824,0.00010196
1.652824,0.00011487
1.653824,0.00006177
1.654824,0.00011852
1.655824,0.00007510
1.656824,0.00006848
1.657824,0.00007272
1.658824,0.00007372
1.659824,0.00006848
1.660824,0.00007057
1.661824,0.00010286
1.662824,0.00009922
1.595623,0.00001544
1.596623,0.00004378
1.597623,0.00006029
1.598623,0.00004825
1.599623,0.00004206
1.600623,0.00008337
1.601623,-0.00000232
1.602623,0.00007169
1.603623,0.00003902
1.604623,0.00008800
1.605623,0.00004821
1.606623,0.00002277
1.607623,0.00006697
1.608623,0.00008118
1.609623,0.00003547
1.610623,0.00001500
1.611623,0.00004896
1.612623,0.00007415
1.613623,0.00008681
1.614623,0.00005854
1.615623,0.00004609
1.616623,0.00005654
1.617623,0.00001080
1.618623,0.00008703
1.619623,0.00001506
1.620623,-0.00001214
1.621623,0.00003531
1.622623,0.00000692
1.623623,0.00010243
1.624623,0.00006963
1.625623,0.00007215
1.626623,0.00006594
1.627623,0.00003836
1.628623,0.00006192
1.629623,0.00005396
1.630623,-0.00001771
1.631623,0.00000861
1.632623,0.00003733
1.633623,0.00002467
1.634623,-0.00000005
1.635623,0.00005494
1.636623,0.00004112
1.637623,0.00001764
1.638623,-0.00005277
1.639623,0.00004064
1.640623,0.00000856
1.641623,0.00001876
1.642623,-0.00002338
1.643623,0.00003541
1.644623,-0.00000214
1.645623,-0.00000644
1.646623,-0.00001511
1.647623,-0.00002083
1.648623,-0.00000360
1.649623,0.00000696
1.650623,0.00000295
1.651623,0.00003719
1.652623,0.00000439
1.653623,0.00001184
1.654623,0.00001311
1.655623,-0.00000956
1.656623,-0.00000899
1.657623,0.00001848
1.658623,0.00003492
1.659623,-0.00004097
1.660623,-0.00001830
1.661623,0.00002595
1.662623,-0.00002826
1.663623,0.00002987
1.664623,0.00001947
1.665623,-0.00004687
1.666623,-0.00001709
1.667623,0.00001051
1.668623,-0.00005591
1.669623,0.00001198
1.670623,0.00004555
1.671623,-0.00000472
1.672623,-0.00003025
1.673623,0.00006776
1.674623,0.00007424
1.675623,-0.00003849
1.676623,-0.00002907
1.677623,-0.00000905
1.678623,-0.00002208
1.679623,-0.00000451
1.680623,-0.00000740
1.681623,-0.00003259
1.682623,0.00000782
1.683623,-0.00001579
1.684623,0.00001368
1.685623,-0.00001483
1.686623,-0.00003164
1.687623,-0.00004693
1.688623,0.00000795
1.689623,0.00000689
1.690623,-0.00000287
1.691623,0.00002014
1.692623,-0.00000007
1.693623,-0.00006768
1.694623,-0.00001993
1.627492,0.00001315
1.628492,-0.00002961
1.629492,-0.00003084
1.630492,-0.00001358
1.631492,0.00000868
1.632492,0.00005057
1.633492,-0.00001150
1.634492,-0.00001197
1.635492,0.00003275
1.636492,0.00000412
1.637492,-0.00005296
1.638492,0.00000144
1.639492,0.00002243
1.640492,0.00004028
1.641492,0.00002736
1.642492,0.00001012
1.643492,-0.00006497
1.644492,-0.00001949
1.645492,-0.00000749
1.646492,-0.00000609
1.647492,0.00000798
1.648492,0.00005338
1.649492,-0.00002061
1.650492,-0.00008004
1.651492,-0.00002591
1.652492,-0.00000942
1.653492,-0.00003642
1.654492,-0.00000809
1.655492,-0.00001312
1.656492,-0.00002164
1.657492,-0.00001656
1.658492,-0.00004260
1.659492,-0.00003806
1.660492,0.00001016
1.661492,-0.00003027
1.662492,0.00002639
1.663492,0.00001903
1.664492,0.00001692
1.665492,0.00007942
1.666492,-0.00000344
1.667492,0.00006789
1.668492,-0.00005237
1.669492,-0.00006420
1.670492,-0.00002126
1.671492,-0.00000780
1.672492,-0.00002359
1.673492,-0.00000574
1.674492,0.00002857
1.675492,-0.00002604
1.676492,0.00000781
1.677492,0.00001080
1.678492,0.00000785
1.679492,0.00002477
1.680492,-0.00000115
1.681492,-0.00001146
1.682492,-0.00002010
1.683492,-0.00000550
1.684492,-0.00004573
1.685492,0.00000527
1.686492,0.00001779
1.687492,0.00002485
1.688492,0.00001820
1.689492,-0.00000857
1.690492,-0.00006107
1.691492,-0.00006222
1.692492,-0.00001420
1.693492,0.00000883
1.694492,-0.00002783
1.695492,-0.00000135
1.696492,0.00001187
1.697492,0.00002804
1.698492,-0.00000245
1.699492,0.00000277
1.700492,-0.00004576
1.701492,0.00006169
1.702492,-0.00004194
1.703492,0.00001566
1.704492,0.00005159
1.705492,0.00005621
1.706492,0.00001465
1.707492,0.00003253
1.708492,0.00009851
1.709492,0.00009129
1.710492,0.00013424
1.711492,0.00017499
1.712492,0.00024279
1.713492,0.00027184
1.714492,0.00033597
1.715492,0.00036068
1.716492,0.00038901
1.717492,0.00053571
1.718492,0.00064141
1.719492,0.00071646
1.720492,0.00081027
1.721492,0.00093933
1.722492,0.00094938
1.723492,0.00102324
1.724492,0.00106670
1.725492,0.00120025
1.726492,0.00116169
1.659081,0.00118824
1.660081,0.00116441
1.661081,0.00113608
1.662081,0.00112461
1.663081,0.00102698
1.664081,0.00089668
1.665081,0.00087748
1.666081,0.00075376
1.667081,0.00063533
1.668081,0.00054379
1.669081,0.00042248
1.670081,0.00033227
1.671081,0.00027073
1.672081,0.00021509
1.673081,0.00012805
1.674081,0.00003777
1.675081,-0.00000014
1.676081,-0.00004980
1.677081,-0.00015418
1.678081,-0.00016900
1.679081,-0.00023693
1.680081,-0.00022145
1.681081,-0.00025877
1.682081,-0.00025393
1.683081,-0.00027260
1.684081,-0.00023264
1.685081,-0.00029105
1.686081,-0.00025953
1.687081,-0.00019926
1.688081,-0.00027967
1.689081,-0.00026552
1.690081,-0.00019039
1.691081,-0.00027097
1.692081,-0.00016562
1.693081,-0.00011035
1.694081,-0.00016249
1.695081,-0.00014611
1.696081,-0.00012575
1.697081,-0.00008039
1.698081,-0.00007406
1.699081,-0.00011911
1.700081,-0.00008819
1.701081,-0.00006499
1.702081,-0.00003860
1.703081,-0.00001244
1.704081,-0.00000666
1.705081,-0.00001789
1.706081,-0.00001920
1.707081,-0.00000088
1.708081,-0.00001067
1.709081,0.00007206
1.710081,-0.00000153
1.711081,0.00003974
1.712081,0.00003469
1.713081,0.00006124
1.714081,0.00007192
1.715081,0.00003944
1.716081,0.00010710
1.717081,0.00003118
1.718081,0.00004520
1.719081,0.00005643
1.720081,0.00006301
1.721081,0.00004483
1.722081,0.00004079
1.723081,0.00005139
1.724081,0.00001896
1.725081,0.00003754
1.726081,0.00011116
1.727081,0.00004399
1.728081,0.00004275
1.729081,0.00004209
1.730081,0.00010386
1.731081,0.00007886
1.732081,0.00008048
1.733081,0.00006114
1.734081,0.00007984
1.735081,0.00005187
1.736081,0.00004880
1.737081,0.00011762
1.738081,0.00009883
1.739081,0.00007385
1.740081,0.00007369
1.741081,0.00008478
1.742081,0.00009731
1.743081,0.00011022
1.744081,0.00010052
1.745081,0.00012110
1.746081,0.00006391
1.747081,0.00016971
1.748081,0.00019075
1.749081,0.00010211
1.750081,0.00006048
1.751081,0.00008133
1.752081,0.00013234
1.753081,0.00014311
1.754081,0.00014742
1.755081,0.00013240
1.756081,0.00015240
1.757081,0.00017543
1.758081,0.00015725
1.691061,0.00015283
1.692061,0.00012288
1.693061,0.00015524
1.694061,0.00008367
1.695061,0.00018719
1.696061,0.00020375
1.697061,0.00018403
1.698061,0.00016981
1.699061,0.00023296
1.700061,0.00025284
1.701061,0.00021936
1.702061,0.00019374
1.703061,0.00015429
1.704061,0.00022098
1.705061,0.00018404
1.706061,0.00021374
1.707061,0.00023701
1.708061,0.00020736
1.709061,0.00025313
1.710061,0.00016137
1.711061,0.00026324
1.712061,0.00021853
1.713061,0.00019890
1.714061,0.00020864
1.715061,0.00017848
1.716061,0.00023867
1.717061,0.00022218
1.718061,0.00015876
1.719061,0.00022275
1.720061,0.00025214
1.721061,0.00022493
1.722061,0.00016495
1.723061,0.00023757
1.724061,0.00021115
1.725061,0.00024187
1.726061,0.00021555
1.727061,0.00027735
1.728061,0.00025048
1.729061,0.00014797
1.730061,0.00020540
1.731061,0.00022412
1.732061,0.00019741
1.733061,0.00019264
1.734061,0.00026125
1.735061,0.00019995
1.736061,0.00026796
1.737061,0.00024219
1.738061,0.00021267
1.739061,0.00029493
1.740061,0.00020349
1.741061,0.00018213
1.742061,0.00020534
1.743061,0.00017020
1.744061,0.00027412
1.745061,0.00015138
1.746061,0.00019392
1.747061,0.00018523
1.748061,0.00018679
1.749061,0.00016756
1.750061,0.00021526
1.751061,0.00020135
1.752061,0.00019575
1.753061,0.00016838
1.754061,0.00010149
1.755061,0.00016938
1.756061,0.00014147
1.757061,0.00018202
1.758061,0.00017332
1.759061,0.00017410
1.760061,0.00017195
1.761061,0.00016706
1.762061,0.00014649
1.763061,0.00009090
1.764061,0.00021317
1.765061,0.00014442
1.766061,0.00015541
1.767061,0.00015098
1.768061,0.00016430
1.769061,0.00008370
1.770061,0.00011401
1.771061,0.00012375
1.772061,0.00010698
1.773061,0.00007439
1.774061,0.00013011
1.775061,0.00014723
1.776061,0.00009933
1.777061,0.00009670
1.778061,0.00011304
1.779061,0.00003272
1.780061,0.00010971
1.781061,0.00009712
1.782061,0.00007382
1.783061,0.00005275
1.784061,0.00005725
1.785061,0.00007491
1.786061,0.00004741
1.787061,0.00005020
1.788061,0.00007232
1.789061,0.00009264
1.790061,0.00010199
1.722636,0.00005358
1.723636,0.00006232
1.724636,0.00008230
1.725636,0.00004321
1.726636,0.00009261
1.727636,0.00003801
1.728636,-0.00000161
1.729636,0.00000388
1.730636,0.00008156
1.731636,0.00006372
1.732636,0.00003921
1.733636,0.00005918
1.734636,0.00005958
1.735636,-0.00001196
1.736636,-0.00002597
1.737636,0.00004781
1.738636,0.00001334
1.739636,-0.00002293
1.740636,0.00002819
1.741636,0.00003549
1.742636,0.00001440
1.743636,-0.00000401
1.744636,0.00001763
1.745636,0.00001050
1.746636,-0.00000714
1.747636,0.00005616
1.748636,0.00002622
1.749636,-0.00001705
1.750636,-0.00000617
1.751636,0.00006259
1.752636,0.00001224
1.753636,0.00001742
1.754636,0.00005940
1.755636,0.00007849
1.756636,0.00001670
1.757636,-0.00004116
1.758636,0.00002151
1.759636,-0.00000852
1.760636,-0.00000568
1.761636,0.00004334
1.762636,0.00006936
1.763636,0.00003600
1.764636,-0.00004785
1.765636,0.00002550
1.766636,0.00001263
1.767636,0.00004521
1.768636,-0.00000622
1.769636,-0.00001924
1.770636,-0.00002345
1.771636,-0.00001604
1.772636,0.00001236
1.773636,-0.00000932
1.774636,0.00001403
1.775636,-0.00002305
1.776636,0.00000804
1.777636,0.00003578
1.778636,-0.00002431
1.779636,0.00000044
1.780636,0.00002275
1.781636,-0.00002618
1.782636,0.00001389
1.783636,0.00002022
1.784636,-0.00003140
1.785636,-0.00001482
1.786636,-0.00003993
1.787636,0.00001309
1.788636,-0.00004145
1.789636,0.00001490
1.790636,-0.00000277
1.791636,0.00000377
1.792636,0.00001555
1.793636,0.00002947
1.794636,0.00000088
1.795636,-0.00000744
1.796636,0.00002789
1.797636,-0.00000245
1.798636,0.00004237
1.799636,0.00000383
1.800636,0.00001155
1.801636,-0.00004666
1.802636,0.00001862
1.803636,0.00001606
1.804636,-0.00000431
1.805636,0.00002983
1.806636,0.00001821
1.807636,0.00000606
1.808636,-0.00000875
1.809636,-0.00000503
1.810636,0.00001910
1.811636,-0.00002397
1.812636,-0.00001775
1.813636,-0.00006912
1.814636,0.00000400
1.815636,-0.00000799
1.816636,0.00003186
1.817636,0.00000664
1.818636,-0.00002991
1.819636,0.00002908
1.820636,0.00002460
1.821636,0.00001767
1.754306,0.00007702
1.755306,-0.00006197
1.756306,0.00003404
1.757306,0.00000203
1.758306,-0.00002386
1.759306,0.00002143
1.760306,0.00000686
1.761306,-0.00005086
1.762306,-0.00002683
1.763306,-0.00000826
1.764306,-0.00004521
1.765306,0.00000215
1.766306,-0.00000343
1.767306,-0.00001581
1.768306,0.00000935
1.769306,-0.00000195
1.770306,0.00002187
1.771306,-0.00000500
1.772306,-0.00000528
1.773306,0.00002338
1.774306,-0.00005369
1.775306,0.00000360
1.776306,-0.00002054
1.777306,0.00006215
1.778306,0.00003069
1.779306,0.00004561
1.780306,-0.00005271
1.781306,0.00001006
1.782306,0.00003588
1.783306,-0.00004232
1.784306,-0.00001033
1.785306,0.00002672
1.786306,0.00002562
1.787306,-0.00006120
1.788306,-0.00001081
1.789306,0.00002663
1.790306,0.00002464
1.791306,-0.00000703
1.792306,-0.00002956
1.793306,0.00006060
1.794306,0.00002521
1.795306,0.00002120
1.796306,-0.00002712
1.797306,-0.00002746
1.798306,0.00001607
1.799306,-0.00004468
1.800306,0.00003316
1.801306,0.00002569
1.802306,0.00001951
1.803306,-0.00002335
1.804306,0.00000929
1.805306,0.00000432
1.806306,0.00005026
1.807306,0.00000363
1.808306,-0.00001525
1.809306,0.00000992
1.810306,0.00002809
1.811306,0.00002156
1.812306,-0.00003892
1.813306,0.00000971
1.814306,0.00000636
1.815306,-0.00004165
1.816306,0.00002955
1.817306,0.00003804
1.818306,0.00000548
1.819306,-0.00002408
1.820306,-0.00000863
1.821306,0.00003003
1.822306,0.00003872
1.823306,-0.00002971
1.824306,-0.00001538
1.825306,-0.00000939
1.826306,0.00004798
1.827306,0.00002108
1.828306,-0.00001534
1.829306,0.00003252
1.830306,0.00002249
1.831306,0.00002812
1.832306,-0.00005382
1.833306,-0.00004634
1.834306,0.00004590
1.835306,-0.00001597
1.836306,-0.00002282
1.837306,-0.00001063
1.838306,-0.00000691
1.839306,-0.00003998
1.840306,-0.00001070
1.841306,0.00002516
1.842306,-0.00000285
1.843306,-0.00002425
1.844306,0.00002127
1.845306,-0.00000285
1.846306,-0.00001353
1.847306,-0.00000641
1.848306,0.00003612
1.849306,-0.00003111
1.850306,0.00001067
1.851306,0.00001110
1.852306,0.00004991
1.853306,-0.00003885
1.786739,0.00005891
1.787739,0.00000111
1.788739,-0.00001072
1.789739,-0.00002431
1.790739,-0.00003763
1.791739,0.00001718
1.792739,0.00003268
1.793739,0.00003537
1.794739,0.00004681
1.795739,-0.00001831
1.796739,0.00001209
1.797739,0.00002475
1.798739,-0.00003803
1.799739,0.00006833
1.800739,-0.00002108
1.801739,0.00001368
1.802739,-0.00001991
1.803739,-0.00007060
1.804739,0.00001716
1.805739,0.00002683
1.806739,-0.00006189
1.807739,0.00004203
1.808739,0.00000326
1.809739,-0.00001709
1.810739,0.00000302
1.811739,-0.00004657
1.812739,0.00003173
1.813739,0.00003425
1.814739,-0.00000033
1.815739,-0.00002475
1.816739,-0.00001361
1.817739,0.00003056
1.818739,0.00000843
1.819739,0.00000906
1.820739,0.00003651
1.821739,0.00001558
1.822739,0.00000237
1.823739,-0.00000755
1.824739,0.00003745
1.825739,-0.00005429
1.826739,-0.00001795
1.827739,0.00002552
1.828739,0.00003964
1.829739,-0.00000271
1.830739,-0.00001709
1.831739,-0.00006010
1.832739,0.00001189
1.833739,-0.00005010
1.834739,-0.00006909
1.835739,-0.00000213
1.836739,0.00001873
1.837739,-0.00000039
1.838739,0.00001265
1.839739,-0.00004846
1.840739,-0.00006489
1.841739,0.00002198
1.842739,0.00004363
1.843739,0.00000250
1.844739,0.00001941
1.845739,-0.00003004
1.846739,0.00003378
1.847739,0.00002996
1.848739,-0.00002908
1.849739,0.00000550
1.850739,0.00002358
1.851739,0.00002917
1.852739,0.00002322
1.853739,0.00002774
1.854739,0.00002133
1.855739,0.00000308
1.856739,-0.00001215
1.857739,0.00003439
1.858739,0.00002753
1.859739,0.00003393
1.860739,0.00000161
1.861739,-0.00000001
1.862739,0.00002521
1.863739,0.00001417
1.864739,-0.00000907
1.865739,-0.00001414
1.866739,0.00002054
1.867739,-0.00005570
1.868739,-0.00004145
1.869739,-0.00003969
1.870739,-0.00002080
1.871739,0.00001933
1.872739,-0.00003365
1.873739,-0.00001658
1.874739,0.00002618
1.875739,0.00005847
1.876739,-0.00008098
1.877739,-0.00002714
1.878739,0.00000748
1.879739,-0.00004541
