timestamp,ch1_ecg_V
-0.016703,-0.00002538
-0.015703,-0.00000078
-0.014703,0.00000164
-0.013703,-0.00003713
-0.012703,-0.00002945
-0.011703,-0.00001958
-0.010703,-0.00007587
-0.009703,-0.00001547
-0.008703,0.00001320
-0.007703,-0.00004316
-0.006703,-0.00002670
-0.005703,-0.00004478
-0.004703,-0.00005795
-0.003703,0.00001429
-0.002703,-0.00002907
-0.001703,-0.00001968
-0.000703,-0.00001018
0.000297,0.00002586
0.001297,0.00000432
0.002297,-0.00004010
0.003297,0.00002202
0.004297,-0.00009570
0.005297,-0.00002007
0.006297,0.00003039
0.007297,-0.00003839
0.008297,0.00001007
0.009297,0.00003381
0.010297,0.00000065
0.011297,0.00002476
0.012297,-0.00001321
0.013297,-0.00000500
0.014297,-0.00000854
0.015297,-0.00000062
0.016297,-0.00000967
0.017297,0.00005604
0.018297,0.00003297
0.019297,-0.00005229
0.020297,0.00005538
0.021297,-0.00003105
0.022297,-0.00001240
0.023297,0.00001667
0.024297,0.00005876
0.025297,-0.00001305
0.026297,0.00001929
0.027297,-0.00001206
0.028297,0.00003163
0.029297,-0.00003164
0.030297,0.00000298
0.031297,0.00003661
0.032297,0.00001705
0.033297,-0.00000143
0.034297,0.00007520
0.035297,0.00002744
0.036297,-0.00002085
0.037297,0.00002036
0.038297,0.00001669
0.039297,0.00002916
0.040297,0.00000920
0.041297,0.00003286
0.042297,-0.00000262
0.043297,-0.00000094
0.044297,0.00000668
0.045297,-0.00002266
0.046297,-0.00001658
0.047297,0.00002259
0.048297,0.00002559
0.049297,-0.00006553
0.050297,0.00004524
0.051297,0.00005830
0.052297,0.00005889
0.053297,-0.00000705
0.054297,0.00008963
0.055297,0.00001349
0.056297,0.00004994
0.057297,0.00002850
0.058297,-0.00000288
0.059297,0.00005200
0.060297,0.00004357
0.061297,0.00005666
0.062297,0.00004062
0.063297,0.00003834
0.064297,0.00004626
0.065297,0.00010311
0.066297,0.00005534
0.067297,0.00005788
0.068297,0.00005529
0.069297,0.00000468
0.070297,0.00001727
0.071297,0.00006133
0.072297,0.00007229
0.073297,0.00006839
0.074297,0.00000049
0.075297,0.00003062
0.076297,0.00003568
0.077297,0.00006104
0.078297,0.00008578
0.079297,0.00004423
0.080297,0.00009742
0.081297,0.00002192
0.082297,0.00006425
0.007923,0.00002778
0.008923,0.00006044
0.009923,0.00005207
0.010923,0.00005612
0.011923,0.00006997
0.012923,0.00012204
0.013923,0.00007563
0.014923,0.00003171
0.015923,0.00009311
0.016923,0.00005011
0.017923,0.00006018
0.018923,0.00007707
0.019923,0.00003381
0.020923,0.00007418
0.021923,0.00009434
0.022923,0.00007140
0.023923,0.00006032
0.024923,0.00007717
0.025923,0.00003817
0.026923,0.00006645
0.027923,0.00010887
0.028923,0.00005262
0.029923,0.00007834
0.030923,0.00010354
0.031923,0.00007886
0.032923,0.00013156
0.033923,0.00005371
0.034923,0.00009395
0.035923,0.00004917
0.036923,0.00009073
0.037923,0.00009759
0.038923,0.00003411
0.039923,0.00006646
0.040923,0.00006914
0.041923,0.00006850
0.042923,0.00000376
0.043923,0.00006939
0.044923,0.00004449
0.045923,0.00003613
0.046923,0.00006886
0.047923,0.00007637
0.048923,0.00007075
0.049923,0.00007516
0.050923,0.00004152
0.051923,0.00007083
0.052923,0.00007866
0.053923,0.00003082
0.054923,0.00005053
0.055923,0.00002917
0.056923,0.00010471
0.057923,0.00003508
0.058923,0.00002625
0.059923,0.00005124
0.060923,0.00003226
0.061923,0.00006926
0.062923,0.00005217
0.063923,0.00012332
0.064923,0.00005475
0.065923,0.00002946
0.066923,0.00008548
0.067923,0.00007255
0.068923,-0.00001221
0.069923,0.00004185
0.070923,0.00006069
0.071923,0.00006207
0.072923,0.00004635
0.073923,0.00003293
0.074923,-0.00002649
0.075923,0.00001008
0.076923,-0.00006717
0.077923,-0.00000960
0.078923,0.00004676
0.079923,0.00002135
0.080923,0.00004737
0.081923,-0.00003457
0.082923,0.00003573
0.083923,-0.00001137
0.084923,0.00001636
0.085923,0.00004084
0.086923,0.00003691
0.087923,0.00000845
0.088923,-0.00001144
0.089923,0.00000996
0.090923,0.00002220
0.091923,0.00003741
0.092923,-0.00000189
0.093923,-0.00001487
0.094923,0.00002514
0.095923,0.00000713
0.096923,0.00004049
0.097923,0.00003472
0.098923,0.00001895
0.099923,-0.00000018
0.100923,-0.00005456
0.101923,-0.00003295
0.102923,0.00004460
0.103923,-0.00005769
0.104923,-0.00000792
0.105923,0.00003372
0.106923,-0.00000197
0.032763,-0.00003104
0.033763,0.00001772
0.034763,0.00004431
0.035763,-0.00002869
0.036763,0.00000204
0.037763,0.00000669
0.038763,-0.00000080
0.039763,0.00003052
0.040763,0.00001819
0.041763,-0.00001289
0.042763,0.00002737
0.043763,0.00003730
0.044763,-0.00003212
0.045763,0.00003071
0.046763,-0.00002338
0.047763,-0.00002250
0.048763,-0.00001471
0.049763,0.00001902
0.050763,0.00001538
0.051763,-0.00001869
0.052763,0.00000281
0.053763,-0.00000416
0.054763,-0.00001454
0.055763,0.00000918
0.056763,0.00000537
0.057763,-0.00000467
0.058763,0.00007410
0.059763,-0.00005776
0.060763,-0.00001585
0.061763,0.00002445
0.062763,-0.00006307
0.063763,0.00002092
0.064763,0.00006415
0.065763,-0.00006650
0.066763,-0.00003156
0.067763,-0.00001102
0.068763,-0.00001661
0.069763,0.00000839
0.070763,-0.00000700
0.071763,-0.00005391
0.072763,-0.00003619
0.073763,-0.00001691
0.074763,-0.00000669
0.075763,0.00001025
0.076763,-0.00001043
0.077763,-0.00000565
0.078763,0.00002354
0.079763,0.00000197
0.080763,-0.00002436
0.081763,0.00004608
0.082763,-0.00000361
0.083763,-0.00003365
0.084763,-0.00005814
0.085763,-0.00001359
0.086763,0.00003632
0.087763,-0.00005317
0.088763,-0.00001231
0.089763,-0.00000488
0.090763,-0.00000319
0.091763,0.00005552
0.092763,-0.00004940
0.093763,-0.00001111
0.094763,-0.00001196
0.095763,-0.00000288
0.096763,0.00007314
0.097763,-0.00002555
0.098763,-0.00001099
0.099763,-0.00006227
0.100763,0.00005081
0.101763,0.00001060
0.102763,0.00001159
0.103763,-0.00000361
0.104763,0.00001957
0.105763,0.00001599
0.106763,-0.00004778
0.107763,0.00000557
0.108763,0.00004969
0.109763,0.00001372
0.110763,-0.00003439
0.111763,0.00000627
0.112763,-0.00005461
0.113763,-0.00002526
0.114763,0.00001803
0.115763,0.00001984
0.116763,0.00001722
0.117763,-0.00001283
0.118763,0.00004529
0.119763,-0.00000392
0.120763,0.00000251
0.121763,-0.00002105
0.122763,-0.00005011
0.123763,-0.00004440
0.124763,-0.00001633
0.125763,-0.00001281
0.126763,0.00001571
0.127763,0.00006070
0.128763,-0.00001084
0.129763,-0.00002586
0.130763,0.00000332
0.131763,0.00000757
0.077879,-0.00006335
0.078879,-0.00000314
0.079879,0.00002537
0.080879,0.00000472
0.081879,0.00000835
0.082879,-0.00003969
0.083879,0.00002166
0.084879,0.00002966
0.085879,-0.00000079
0.086879,0.00003065
0.087879,-0.00000236
0.088879,0.00001888
0.089879,0.00003534
0.090879,0.00005345
0.091879,0.00011237
0.092879,0.00006049
0.093879,0.00011614
0.094879,0.00016911
0.095879,0.00015246
0.096879,0.00022014
0.097879,0.00031256
0.098879,0.00035729
0.099879,0.00046096
0.100879,0.00053319
0.101879,0.00057285
0.102879,0.00066246
0.103879,0.00081372
0.104879,0.00084027
0.105879,0.00092348
0.106879,0.00101068
0.107879,0.00109651
0.108879,0.00113331
0.109879,0.00121662
0.110879,0.00111040
0.111879,0.00118222
0.112879,0.00113377
0.113879,0.00116671
0.114879,0.00105076
0.115879,0.00098471
0.116879,0.00083622
0.117879,0.00070742
0.118879,0.00068105
0.119879,0.00054099
0.120879,0.00053921
0.121879,0.00036435
0.122879,0.00033576
0.123879,0.00024899
0.124879,0.00011492
0.125879,-0.00000400
0.126879,-0.00000026
0.127879,-0.00005240
0.128879,-0.00007584
0.129879,-0.00012586
0.130879,-0.00018126
0.131879,-0.00019626
0.132879,-0.00022649
0.133879,-0.00029946
0.134879,-0.00025860
0.135879,-0.00028343
0.136879,-0.00026933
0.137879,-0.00026312
0.138879,-0.00025441
0.139879,-0.00025631
0.140879,-0.00024122
0.141879,-0.00025384
0.142879,-0.00024866
0.143879,-0.00022426
0.144879,-0.00015362
0.145879,-0.00014980
0.146879,-0.00013578
0.147879,-0.00012710
0.148879,-0.00007393
0.149879,-0.00009181
0.150879,-0.00009481
0.151879,-0.00004886
0.152879,-0.00006339
0.153879,-0.00008030
0.154879,-0.00004357
0.155879,-0.00002218
0.156879,-0.00004244
0.157879,0.00005394
0.158879,0.00005494
0.159879,0.00001228
0.160879,0.00002792
0.161879,0.00002950
0.162879,0.00002293
0.163879,-0.00005540
0.164879,0.00006878
0.165879,0.00003127
0.166879,0.00007010
0.167879,0.00006219
0.168879,-0.00000963
0.169879,0.00006048
0.170879,-0.00000211
0.171879,0.00005009
0.172879,0.00008113
0.173879,0.00007007
0.174879,0.00008018
0.175879,0.00008413
0.176879,0.00003046
0.109673,0.00009162
0.110673,0.00007282
0.111673,0.00005032
0.112673,0.00008966
0.113673,0.00006146
0.114673,0.00003113
0.115673,0.00004792
0.116673,0.00009638
0.117673,0.00010001
0.118673,0.00009365
0.119673,0.00012017
0.120673,0.00006300
0.121673,0.00007744
0.122673,0.00007032
0.123673,0.00013145
0.124673,0.00012300
0.125673,0.00013196
0.126673,0.00012367
0.127673,0.00015470
0.128673,0.00011568
0.129673,0.00008050
0.130673,0.00011163
0.131673,0.00009365
0.132673,0.00016120
0.133673,0.00015566
0.134673,0.00016052
0.135673,0.00014426
0.136673,0.00014312
0.137673,0.00013571
0.138673,0.00013631
0.139673,0.00017145
0.140673,0.00016363
0.141673,0.00010241
0.142673,0.00011758
0.143673,0.00016987
0.144673,0.00017313
0.145673,0.00017916
0.146673,0.00019015
0.147673,0.00017837
0.148673,0.00013448
0.149673,0.00016795
0.150673,0.00016696
0.151673,0.00015596
0.152673,0.00019212
0.153673,0.00024713
0.154673,0.00021119
0.155673,0.00020026
0.156673,0.00019848
0.157673,0.00020205
0.158673,0.00017513
0.159673,0.00013344
0.160673,0.00021397
0.161673,0.00018311
0.162673,0.00029082
0.163673,0.00021743
0.164673,0.00021905
0.165673,0.00022088
0.166673,0.00020210
0.167673,0.00017291
0.168673,0.00018166
0.169673,0.00018294
0.170673,0.00024359
0.171673,0.00021152
0.172673,0.00020507
0.173673,0.00020789
0.174673,0.00025786
0.175673,0.00023821
0.176673,0.00025092
0.177673,0.00020169
0.178673,0.00022308
0.179673,0.00017565
0.180673,0.00022567
0.181673,0.00029224
0.182673,0.00024026
0.183673,0.00021676
0.184673,0.00025766
0.185673,0.00018335
0.186673,0.00025130
0.187673,0.00020917
0.188673,0.00019980
0.189673,0.00019298
0.190673,0.00022791
0.191673,0.00021817
0.192673,0.00018714
0.193673,0.00016648
0.194673,0.00022428
0.195673,0.00015869
0.196673,0.00018865
0.197673,0.00018828
0.198673,0.00018572
0.199673,0.00026857
0.200673,0.00015098
0.201673,0.00024262
0.202673,0.00017402
0.203673,0.00014950
0.204673,0.00011917
0.205673,0.00015999
0.206673,0.00012337
0.207673,0.00017600
0.208673,0.00011197
0.141225,0.00012058
0.142225,0.00012145
0.143225,0.00009250
0.144225,0.00018209
0.145225,0.00013071
0.146225,0.00011785
0.147225,0.00018264
0.148225,0.00004884
0.149225,0.00009847
0.150225,0.00008226
0.151225,0.00012431
0.152225,0.00013983
0.153225,0.00015092
0.154225,0.00007525
0.155225,0.00008283
0.156225,0.00011382
0.157225,0.00012154
0.158225,0.00011040
0.159225,0.00010510
0.160225,0.00012880
0.161225,0.00007402
0.162225,0.00011380
0.163225,0.00005806
0.164225,0.00013792
0.165225,0.00005917
0.166225,0.00009798
0.167225,0.00008645
0.168225,0.00007769
0.169225,0.00005962
0.170225,0.00011194
0.171225,0.00012942
0.172225,0.00005737
0.173225,0.00005667
0.174225,0.00003785
0.175225,0.00008155
0.176225,0.00009970
0.177225,0.00005261
0.178225,0.00006881
0.179225,0.00005265
0.180225,0.00005315
0.181225,0.00010282
0.182225,0.00000653
0.183225,0.00004658
0.184225,0.00004607
0.185225,0.00012548
0.186225,0.00008339
0.187225,0.00003843
0.188225,0.00003786
0.189225,-0.00002736
0.190225,-0.00003676
0.191225,-0.00000652
0.192225,0.00000010
0.193225,0.00011493
0.194225,0.00000758
0.195225,0.00003708
0.196225,0.00004509
0.197225,-0.00000035
0.198225,0.00004069
0.199225,0.00001258
0.200225,0.00002306
0.201225,0.00000114
0.202225,-0.00001402
0.203225,0.00001577
0.204225,-0.00000886
0.205225,0.00000508
0.206225,-0.00001005
0.207225,-0.00001052
0.208225,0.00000859
0.209225,0.00000460
0.210225,0.00001158
0.211225,-0.00001430
0.212225,-0.00002872
0.213225,0.00000918
0.214225,0.00000117
0.215225,0.00002814
0.216225,-0.00001637
0.217225,-0.00000738
0.218225,0.00000436
0.219225,0.00003495
0.220225,0.00002922
0.221225,0.00001247
0.222225,0.00001445
0.223225,0.00008315
0.224225,-0.00002095
0.225225,0.00004309
0.226225,0.00002906
0.227225,0.00000042
0.228225,0.00000374
0.229225,-0.00002982
0.230225,0.00000751
0.231225,0.00000979
0.232225,-0.00003256
0.233225,0.00002818
0.234225,-0.00002774
0.235225,-0.00003064
0.236225,-0.00003042
0.237225,-0.00001288
0.238225,0.00001090
0.239225,-0.00002391
0.240225,0.00000927
0.172644,0.00000617
0.173644,0.00001772
0.174644,0.00001725
0.175644,-0.00002956
0.176644,-0.00001955
0.177644,0.00004556
0.178644,-0.00002621
0.179644,0.00004598
0.180644,-0.00001136
0.181644,0.00001576
0.182644,-0.00005642
0.183644,-0.00000989
0.184644,-0.00002377
0.185644,0.00001969
0.186644,-0.00002232
0.187644,0.00001241
0.188644,-0.00001256
0.189644,-0.00003232
0.190644,0.00000742
0.191644,-0.00000849
0.192644,0.00002357
0.193644,0.00003392
0.194644,-0.00001457
0.195644,0.00004912
0.196644,-0.00000806
0.197644,0.00002890
0.198644,0.00006196
0.199644,0.00001679
0.200644,-0.00001208
0.201644,-0.00000851
0.202644,0.00001823
0.203644,-0.00002835
0.204644,-0.00000379
0.205644,-0.00002936
0.206644,0.00003755
0.207644,0.00001183
0.208644,0.00004268
0.209644,-0.00001711
0.210644,-0.00002453
0.211644,0.00000546
0.212644,0.00001242
0.213644,-0.00001994
0.214644,-0.00001511
0.215644,-0.00004732
0.216644,0.00005325
0.217644,0.00002363
0.218644,0.00000581
0.219644,0.00000297
0.220644,-0.00001368
0.221644,0.00000485
0.222644,-0.00000205
0.223644,-0.00001962
0.224644,0.00001015
0.225644,-0.00003643
0.226644,-0.00000324
0.227644,-0.00000144
0.228644,-0.00001339
0.229644,-0.00003161
0.230644,-0.00001623
0.231644,-0.00002730
0.232644,-0.00002544
0.233644,-0.00004168
0.234644,0.00001258
0.235644,-0.00001975
0.236644,0.00002782
0.237644,-0.00003381
0.238644,-0.00001564
0.239644,-0.00002871
0.240644,0.00005315
0.241644,0.00004889
0.242644,0.00001275
0.243644,-0.00004073
0.244644,-0.00000570
0.245644,0.00002693
0.246644,-0.00003791
0.247644,0.00002426
0.248644,0.00006493
0.249644,-0.00001324
0.250644,0.00002588
0.251644,0.00000137
0.252644,-0.00002771
0.253644,0.00002241
0.254644,-0.00000778
0.255644,-0.00000957
0.256644,0.00001016
0.257644,0.00001183
0.258644,0.00001112
0.259644,-0.00006563
0.260644,0.00004376
0.261644,0.00003477
0.262644,-0.00001814
0.263644,-0.00000050
0.264644,-0.00006628
0.265644,0.00001203
0.266644,-0.00000437
0.267644,-0.00004325
0.268644,-0.00005737
0.269644,0.00000544
0.270644,0.00002000
0.271644,0.00001424
0.204594,0.00006211
0.205594,-0.00003623
0.206594,0.00002120
0.207594,0.00001232
0.208594,-0.00001057
0.209594,0.00005076
0.210594,-0.00000072
0.211594,0.00001913
0.212594,0.00004382
0.213594,-0.00000622
0.214594,0.00003956
0.215594,-0.00000618
0.216594,0.00000868
0.217594,-0.00001207
0.218594,-0.00003602
0.219594,-0.00002416
0.220594,0.00001651
0.221594,-0.00004041
0.222594,-0.00001035
0.223594,0.00003690
0.224594,0.00002315
0.225594,0.00001357
0.226594,-0.00002394
0.227594,0.00004117
0.228594,-0.00003581
0.229594,-0.00004456
0.230594,-0.00001390
0.231594,-0.00003357
0.232594,0.00003398
0.233594,0.00001395
0.234594,0.00007427
0.235594,-0.00006357
0.236594,-0.00000984
0.237594,-0.00000730
0.238594,0.00000464
0.239594,-0.00003258
0.240594,0.00001941
0.241594,0.00000192
0.242594,-0.00001490
0.243594,-0.00003804
0.244594,-0.00000022
0.245594,-0.00003735
0.246594,-0.00002070
0.247594,0.00000332
0.248594,-0.00002984
0.249594,0.00005898
0.250594,0.00001771
0.251594,-0.00000464
0.252594,-0.00002213
0.253594,-0.00004553
0.254594,0.00000884
0.255594,-0.00004580
0.256594,-0.00000125
0.257594,0.00001996
0.258594,0.00001199
0.259594,0.00000191
0.260594,-0.00000063
0.261594,-0.00005170
0.262594,-0.00005279
0.263594,0.00001111
0.264594,-0.00001519
0.265594,-0.00000856
0.266594,-0.00000122
0.267594,-0.00004431
0.268594,-0.00003420
0.269594,-0.00003975
0.270594,-0.00000299
0.271594,0.00000398
0.272594,0.00004829
0.273594,-0.00003338
0.274594,-0.00002840
0.275594,0.00002559
0.276594,-0.00003260
0.277594,-0.00000091
0.278594,-0.00006226
0.279594,-0.00001183
0.280594,-0.00002843
0.281594,-0.00002994
0.282594,0.00001776
0.283594,-0.00000293
0.284594,-0.00004301
0.285594,-0.00004531
0.286594,0.00001432
0.287594,-0.00001100
0.288594,-0.00003728
0.289594,-0.00002070
0.290594,-0.00000616
0.291594,0.00003390
0.292594,-0.00001545
0.293594,-0.00000281
0.294594,0.00005213
0.295594,-0.00002565
0.296594,0.00003371
0.297594,-0.00001657
0.298594,0.00006753
0.299594,0.00002272
0.300594,0.00005718
0.301594,0.00003432
0.302594,-0.00000148
0.303594,-0.00000021
0.236101,-0.00004402
0.237101,-0.00000448
0.238101,-0.00000942
0.239101,-0.00000114
0.240101,0.00001286
0.241101,-0.00005603
0.242101,-0.00002144
0.243101,-0.00000356
0.244101,0.00002266
0.245101,-0.00003186
0.246101,0.00002590
0.247101,0.00000086
0.248101,0.00005583
0.249101,0.00000089
0.250101,0.00000827
0.251101,0.00000225
0.252101,-0.00003093
0.253101,0.00002571
0.254101,0.00001733
0.255101,-0.00001886
0.256101,-0.00000516
0.257101,-0.00000004
0.258101,-0.00002261
0.259101,-0.00003112
0.260101,0.00000364
0.261101,0.00000363
0.262101,-0.00004478
0.263101,0.00004028
0.264101,-0.00003279
0.265101,-0.00001598
0.266101,0.00000961
0.267101,-0.00001216
0.268101,0.00001386
0.269101,-0.00006849
0.270101,-0.00000387
0.271101,0.00001500
0.272101,-0.00008070
0.273101,-0.00004364
0.274101,-0.00001585
0.275101,-0.00000762
0.276101,0.00002458
0.277101,-0.00002926
0.278101,-0.00000070
0.279101,-0.00000454
0.280101,-0.00004248
0.281101,0.00001885
0.282101,-0.00002374
0.283101,0.00006014
0.284101,0.00005065
0.285101,0.00000542
0.286101,0.00004951
0.287101,-0.00003846
0.288101,-0.00002164
0.289101,0.00003418
0.290101,-0.00000862
0.291101,0.00000033
0.292101,0.00000083
0.293101,-0.00001543
0.294101,-0.00004918
0.295101,0.00002153
0.296101,-0.00000638
0.297101,0.00001160
0.298101,-0.00000695
0.299101,0.00000902
0.300101,0.00004219
0.301101,0.00003968
0.302101,0.00006095
0.303101,-0.00000033
0.304101,0.00000597
0.305101,-0.00000149
0.306101,-0.00001006
0.307101,0.00002662
0.308101,0.00010752
0.309101,-0.00000455
0.310101,-0.00004676
0.311101,0.00001212
0.312101,0.00001300
0.313101,0.00008941
0.314101,0.00005136
0.315101,-0.00001134
0.316101,0.00005572
0.317101,0.00001043
0.318101,0.00003949
0.319101,0.00001954
0.320101,-0.00004140
0.321101,0.00008860
0.322101,0.00002297
0.323101,0.00001879
0.324101,0.00002529
0.325101,0.00002072
0.326101,0.00002696
0.327101,0.00005570
0.328101,-0.00000647
0.329101,0.00002684
0.330101,0.00000594
0.331101,0.00007571
0.332101,-0.00002561
0.333101,0.00002595
0.334101,0.00002782
0.335101,0.00002784
0.267782,0.00005574
0.268782,0.00002763
0.269782,0.00003641
0.270782,0.00001955
0.271782,-0.00000103
0.272782,0.00003821
0.273782,0.00002759
0.274782,0.00002343
0.275782,0.00002800
0.276782,0.00006088
0.277782,0.00001079
0.278782,0.00005952
0.279782,0.00007495
0.280782,0.00006178
0.281782,0.00006561
0.282782,0.00004940
0.283782,0.00001065
0.284782,0.00002535
0.285782,0.00006563
0.286782,0.00005561
0.287782,0.00008751
0.288782,0.00003565
0.289782,0.00006147
0.290782,0.00006694
0.291782,-0.00000144
0.292782,0.00000304
0.293782,0.00012911
0.294782,0.00003255
0.295782,0.00001136
0.296782,0.00007957
0.297782,0.00005891
0.298782,0.00007096
0.299782,0.00008955
0.300782,0.00011623
0.301782,0.00006268
0.302782,0.00008867
0.303782,0.00012934
0.304782,0.00006475
0.305782,0.00007396
0.306782,0.00002782
0.307782,0.00003614
0.308782,0.00003064
0.309782,0.00013425
0.310782,0.00008147
0.311782,0.00003675
0.312782,0.00012377
0.313782,0.00010667
0.314782,0.00004564
0.315782,0.00013008
0.316782,0.00007986
0.317782,0.00011080
0.318782,0.00003329
0.319782,0.00005735
0.320782,0.00009250
0.321782,0.00006856
0.322782,0.00005817
0.323782,0.00010479
0.324782,0.00010852
0.325782,0.00004299
0.326782,0.00004322
0.327782,0.00006726
0.328782,0.00006082
0.329782,0.00011694
0.330782,0.00005784
0.331782,0.00009781
0.332782,0.00008347
0.333782,0.00006866
0.334782,0.00006774
0.335782,0.00005827
0.336782,0.00004518
0.337782,0.00004994
0.338782,0.00008781
0.339782,0.00007468
0.340782,0.00012002
0.341782,0.00007052
0.342782,0.00004646
0.343782,0.00008104
0.344782,0.00006716
0.345782,0.00005691
0.346782,0.00004195
0.347782,0.00007235
0.348782,0.00003856
0.349782,0.00001361
0.350782,0.00003012
0.351782,0.00006028
0.352782,0.00007966
0.353782,0.00004737
0.354782,0.00000680
0.355782,0.00000429
0.356782,0.00006869
0.357782,0.00005868
0.358782,0.00002625
0.359782,0.00000105
0.360782,0.00001101
0.361782,0.00004842
0.362782,0.00000521
0.363782,0.00008444
0.364782,0.00002364
0.365782,0.00009889
0.366782,0.00004548
0.299585,-0.00001638
0.300585,-0.00000532
0.301585,0.00004953
0.302585,0.00001510
0.303585,0.00001801
0.304585,-0.00001682
0.305585,0.00002697
0.306585,0.00002285
0.307585,-0.00001653
0.308585,0.00002117
0.309585,0.00005611
0.310585,0.00001850
0.311585,-0.00005036
0.312585,0.00004621
0.313585,0.00008867
0.314585,-0.00002361
0.315585,-0.00001106
0.316585,-0.00004405
0.317585,-0.00003671
0.318585,-0.00004247
0.319585,0.00000669
0.320585,-0.00003424
0.321585,0.00000470
0.322585,0.00008094
0.323585,-0.00003658
0.324585,0.00000060
0.325585,0.00004023
0.326585,0.00002668
0.327585,-0.00001958
0.328585,0.00001360
0.329585,-0.00000099
0.330585,0.00002588
0.331585,-0.00003362
0.332585,-0.00001174
0.333585,-0.00000490
0.334585,-0.00010370
0.335585,0.00000528
0.336585,-0.00001517
0.337585,0.00000011
0.338585,0.00004458
0.339585,0.00004505
0.340585,0.00000670
0.341585,-0.00002436
0.342585,0.00000363
0.343585,-0.00000520
0.344585,-0.00002022
0.345585,-0.00000899
0.346585,-0.00001474
0.347585,0.00000948
0.348585,0.00005634
0.349585,0.00000557
0.350585,-0.00004797
0.351585,-0.00002037
0.352585,0.00003312
0.353585,0.00001783
0.354585,0.00003538
0.355585,0.00001018
0.356585,-0.00000228
0.357585,-0.00001282
0.358585,-0.00001254
0.359585,0.00002623
0.360585,0.00000668
0.361585,0.00002875
0.362585,-0.00000595
0.363585,-0.00000668
0.364585,-0.00000216
0.365585,0.00007175
0.366585,-0.00000081
0.367585,0.00003548
0.368585,0.00001313
0.369585,0.00002969
0.370585,-0.00002684
0.371585,0.00000003
0.372585,0.00000817
0.373585,-0.00002149
0.374585,0.00003207
0.375585,-0.00003050
0.376585,-0.00003682
0.377585,0.00001045
0.378585,-0.00000233
0.379585,0.00001588
0.380585,-0.00000744
0.381585,0.00003269
0.382585,0.00003590
0.383585,-0.00000074
0.384585,0.00002886
0.385585,-0.00000780
0.386585,0.00001649
0.387585,0.00005058
0.388585,-0.00000454
0.389585,0.00004148
0.390585,-0.00003382
0.391585,-0.00002484
0.392585,-0.00001625
0.393585,0.00001232
0.394585,0.00000024
0.395585,-0.00000985
0.396585,-0.00001798
0.397585,-0.00004450
0.398585,-0.00001054
0.331432,0.00005936
0.332432,-0.00005268
0.333432,-0.00001704
0.334432,-0.00000781
0.335432,0.00000664
0.336432,-0.00006317
0.337432,0.00000640
0.338432,0.00004407
0.339432,0.00000891
0.340432,-0.00002605
0.341432,0.00001198
0.342432,-0.00000271
0.343432,-0.00007037
0.344432,-0.00002404
0.345432,0.00004962
0.346432,0.00004002
0.347432,0.00001179
0.348432,0.00006674
0.349432,-0.00007009
0.350432,-0.00001632
0.351432,0.00002956
0.352432,0.00004616
0.353432,0.00000020
0.354432,-0.00005528
0.355432,0.00002103
0.356432,-0.00004979
0.357432,-0.00001389
0.358432,-0.00002396
0.359432,0.00004453
0.360432,-0.00006429
0.361432,-0.00002957
0.362432,-0.00002189
0.363432,0.00004145
0.364432,0.00000007
0.365432,-0.00000324
0.366432,-0.00000611
0.367432,0.00001231
0.368432,0.00001073
0.369432,-0.00003254
0.370432,0.00001618
0.371432,-0.00004957
0.372432,0.00002162
0.373432,-0.00000929
0.374432,0.00002168
0.375432,0.00004630
0.376432,0.00003474
0.377432,0.00005998
0.378432,0.00011799
0.379432,0.00002050
0.380432,0.00014355
0.381432,0.00017727
0.382432,0.00015171
0.383432,0.00020304
0.384432,0.00022395
0.385432,0.00026776
0.386432,0.00041684
0.387432,0.00050043
0.388432,0.00056076
0.389432,0.00068125
0.390432,0.00079107
0.391432,0.00086594
0.392432,0.00092459
0.393432,0.00104608
0.394432,0.00110747
0.395432,0.00106962
0.396432,0.00115603
0.397432,0.00114381
0.398432,0.00117448
0.399432,0.00118490
0.400432,0.00107905
0.401432,0.00107851
0.402432,0.00101230
0.403432,0.00092522
0.404432,0.00079711
0.405432,0.00068973
0.406432,0.00062103
0.407432,0.00049846
0.408432,0.00037062
0.409432,0.00029715
0.410432,0.00022673
0.411432,0.00014152
0.412432,0.00011408
0.413432,-0.00001313
0.414432,0.00000195
0.415432,-0.00008461
0.416432,-0.00014732
0.417432,-0.00015055
0.418432,-0.00019182
0.419432,-0.00019870
0.420432,-0.00022634
0.421432,-0.00022505
0.422432,-0.00023322
0.423432,-0.00023792
0.424432,-0.00029016
0.425432,-0.00027817
0.426432,-0.00027022
0.427432,-0.00022571
0.428432,-0.00023585
0.429432,-0.00020253
0.430432,-0.00021615
0.362652,-0.00019415
0.363652,-0.00019084
0.364652,-0.00013659
0.365652,-0.00012415
0.366652,-0.00016898
0.367652,-0.00008110
0.368652,-0.00014689
0.369652,-0.00004079
0.370652,-0.00008948
0.371652,-0.00003812
0.372652,-0.00005432
0.373652,-0.00007400
0.374652,-0.00001705
0.375652,0.00002982
0.376652,-0.00003598
0.377652,0.00001795
0.378652,0.00004093
0.379652,0.00004503
0.380652,-0.00000900
0.381652,0.00003153
0.382652,0.00003682
0.383652,0.00002383
0.384652,0.00003560
0.385652,0.00004129
0.386652,0.00001327
0.387652,0.00004265
0.388652,0.00009029
0.389652,0.00004174
0.390652,0.00009159
0.391652,0.00006865
0.392652,0.00003527
0.393652,0.00005794
0.394652,0.00005898
0.395652,0.00003460
0.396652,0.00005548
0.397652,0.00008434
0.398652,0.00010574
0.399652,0.00015936
0.400652,0.00013942
0.401652,0.00007242
0.402652,0.00006556
0.403652,0.00007100
0.404652,0.00010765
0.405652,0.00014186
0.406652,0.00011943
0.407652,0.00010552
0.408652,0.00009797
0.409652,0.00012651
0.410652,0.00006769
0.411652,0.00009881
0.412652,0.00009711
0.413652,0.00009128
0.414652,0.00006484
0.415652,0.00008883
0.416652,0.00015389
0.417652,0.00013524
0.418652,0.00010929
0.419652,0.00017579
0.420652,0.00013602
0.421652,0.00011240
0.422652,0.00013848
0.423652,0.00012253
0.424652,0.00009403
0.425652,0.00018162
0.426652,0.00024006
0.427652,0.00017638
0.428652,0.00015187
0.429652,0.00020436
0.430652,0.00018966
0.431652,0.00018389
0.432652,0.00017103
0.433652,0.00015958
0.434652,0.00016738
0.435652,0.00016248
0.436652,0.00015031
0.437652,0.00016142
0.438652,0.00021966
0.439652,0.00021369
0.440652,0.00019100
0.441652,0.00017932
0.442652,0.00021821
0.443652,0.00021462
0.444652,0.00020036
0.445652,0.00023540
0.446652,0.00023826
0.447652,0.00016424
0.448652,0.00015735
0.449652,0.00021650
0.450652,0.00019694
0.451652,0.00017539
0.452652,0.00022809
0.453652,0.00019094
0.454652,0.00019868
0.455652,0.00021548
0.456652,0.00024670
0.457652,0.00020404
0.458652,0.00021691
0.459652,0.00024650
0.460652,0.00024471
0.461652,0.00024344
0.394156,0.00022190
0.395156,0.00022757
0.396156,0.00017491
0.397156,0.00026190
0.398156,0.00022235
0.399156,0.00025355
0.400156,0.00022298
0.401156,0.00018689
0.402156,0.00022668
0.403156,0.00018818
0.404156,0.00024881
0.405156,0.00022434
0.406156,0.00021209
0.407156,0.00016034
0.408156,0.00023382
0.409156,0.00021063
0.410156,0.00018703
0.411156,0.00022841
0.412156,0.00015565
0.413156,0.00017411
0.414156,0.00017272
0.415156,0.00019009
0.416156,0.00022416
0.417156,0.00016875
0.418156,0.00016423
0.419156,0.00017160
0.420156,0.00014204
0.421156,0.00021058
0.422156,0.00017409
0.423156,0.00016434
0.424156,0.00011330
0.425156,0.00017236
0.426156,0.00015272
0.427156,0.00011797
0.428156,0.00012532
0.429156,0.00013510
0.430156,0.00015423
0.431156,0.00018285
0.432156,0.00013366
0.433156,0.00008473
0.434156,0.00013651
0.435156,0.00009356
0.436156,0.00011515
0.437156,0.00017198
0.438156,0.00011703
0.439156,0.00014233
0.440156,0.00015479
0.441156,0.00010741
0.442156,0.00011039
0.443156,0.00007502
0.444156,0.00011912
0.445156,0.00012374
0.446156,0.00015945
0.447156,0.00012881
0.448156,0.00006967
0.449156,0.00010455
0.450156,0.00006007
0.451156,0.00012625
0.452156,0.00003544
0.453156,0.00000985
0.454156,0.00009103
0.455156,0.00009304
0.456156,0.00006794
0.457156,0.00003575
0.458156,0.00007991
0.459156,0.00008025
0.460156,0.00009957
0.461156,0.00008220
0.462156,0.00006589
0.463156,0.00003907
0.464156,0.00006445
0.465156,0.00004172
0.466156,0.00004605
0.467156,0.00001393
0.468156,0.00010529
0.469156,0.00005970
0.470156,0.00004660
0.471156,0.00005415
0.472156,0.00006768
0.473156,0.00002704
0.474156,0.00000199
0.475156,0.00003575
0.476156,0.00003441
0.477156,0.00000208
0.478156,-0.00000205
0.479156,0.00004336
0.480156,0.00001674
0.481156,0.00005130
0.482156,0.00002293
0.483156,-0.00000055
0.484156,0.00000551
0.485156,0.00003529
0.486156,-0.00001237
0.487156,0.00001009
0.488156,-0.00000393
0.489156,-0.00003185
0.490156,0.00000793
0.491156,0.00001232
0.492156,0.00000920
0.493156,0.00003425
0.425514,-0.00001978
0.426514,-0.00000264
0.427514,0.00002610
0.428514,0.00000080
0.429514,0.00001619
0.430514,0.00004119
0.431514,-0.00001241
0.432514,0.00005568
0.433514,-0.00006813
0.434514,0.00001765
0.435514,-0.00001563
0.436514,0.00003016
0.437514,-0.00002660
0.438514,0.00001228
0.439514,-0.00001487
0.440514,-0.00003825
0.441514,0.00000192
0.442514,0.00000542
0.443514,-0.00000505
0.444514,0.00008733
0.445514,0.00012515
0.446514,-0.00010096
0.447514,0.00002332
0.448514,-0.00004463
0.449514,0.00000391
0.450514,-0.00000525
0.451514,-0.00000605
0.452514,0.00000415
0.453514,0.00005934
0.454514,0.00001991
0.455514,0.00002498
0.456514,0.00003707
0.457514,-0.00001897
0.458514,-0.00004607
0.459514,0.00002249
0.460514,0.00003240
0.461514,0.00000776
0.462514,-0.00001526
0.463514,-0.00002063
0.464514,0.00000224
0.465514,-0.00002943
0.466514,0.00005898
0.467514,-0.00000301
0.468514,0.00000865
0.469514,0.00000715
0.470514,-0.00000470
0.471514,0.00000442
0.472514,0.00001712
0.473514,0.00003370
0.474514,-0.00003928
0.475514,-0.00001343
0.476514,0.00001035
0.477514,-0.00002420
0.478514,-0.00002233
0.479514,-0.00002355
0.480514,0.00001672
0.481514,-0.00001585
0.482514,-0.00001277
0.483514,0.00001497
0.484514,0.00001376
0.485514,0.00003252
0.486514,0.00000152
0.487514,-0.00007016
0.488514,-0.00000237
0.489514,0.00001971
0.490514,-0.00000241
0.491514,0.00001881
0.492514,0.00001218
0.493514,0.00000597
0.494514,-0.00002548
0.495514,-0.00000321
0.496514,-0.00004769
0.497514,-0.00005017
0.498514,-0.00005040
0.499514,0.00003606
0.500514,-0.00001334
0.501514,0.00000105
0.502514,-0.00001711
0.503514,0.00000446
0.504514,-0.00005448
0.505514,0.00004154
0.506514,-0.00001139
0.507514,0.00003046
0.508514,-0.00001934
0.509514,-0.00002664
0.510514,-0.00000504
0.511514,0.00001263
0.512514,-0.00003980
0.513514,0.00000037
0.514514,0.00000522
0.515514,0.00002990
0.516514,-0.00000062
0.517514,0.00000630
0.518514,-0.00001735
0.519514,0.00002663
0.520514,0.00000744
0.521514,0.00001558
0.522514,-0.00000980
0.523514,-0.00004874
0.524514,-0.00006786
0.462476,-0.00002955
0.463476,-0.00003491
0.464476,0.00002570
0.465476,0.00003390
0.466476,-0.00000038
0.467476,0.00002012
0.468476,0.00000389
0.469476,0.00005326
0.470476,-0.00004842
0.471476,0.00000178
0.472476,-0.00001643
0.473476,-0.00000103
0.474476,-0.00004996
0.475476,-0.00000891
0.476476,0.00000728
0.477476,0.00002341
0.478476,0.00003746
0.479476,-0.00001344
0.480476,0.00002629
0.481476,0.00005071
0.482476,0.00002745
0.483476,-0.00002009
0.484476,0.00002595
0.485476,0.00000474
0.486476,0.00002896
0.487476,-0.00001584
0.488476,-0.00005913
0.489476,0.00002388
0.490476,-0.00001287
0.491476,0.00005549
0.492476,-0.00002190
0.493476,0.00003324
0.494476,0.00000757
0.495476,-0.00000957
0.496476,-0.00008198
0.497476,-0.00003005
0.498476,0.00003522
0.499476,0.00002362
0.500476,0.00003088
0.501476,0.00004543
0.502476,-0.00003869
0.503476,-0.00003443
0.504476,-0.00004239
0.505476,0.00001316
0.506476,-0.00002836
0.507476,0.00002169
0.508476,0.00004558
0.509476,-0.00001917
0.510476,-0.00000451
0.511476,-0.00003617
0.512476,0.00002269
0.513476,-0.00003490
0.514476,0.00007321
0.515476,0.00002683
0.516476,0.00000457
0.517476,-0.00001551
0.518476,-0.00002431
0.519476,-0.00000848
0.520476,0.00001738
0.521476,0.00005118
0.522476,-0.00007426
0.523476,-0.00000871
0.524476,-0.00003824
0.525476,0.00008170
0.526476,-0.00001289
0.527476,0.00003267
0.528476,-0.00000503
0.529476,0.00001204
0.530476,0.00002392
0.531476,0.00000565
0.532476,0.00004637
0.533476,0.00001584
0.534476,-0.00001556
0.535476,0.00000919
0.536476,0.00001677
0.537476,-0.00000827
0.538476,0.00000879
0.539476,0.00003183
0.540476,0.00002633
0.541476,0.00001787
0.542476,0.00001579
0.543476,-0.00002808
0.544476,0.00000253
0.545476,-0.00003455
0.546476,-0.00005892
0.547476,-0.00000814
0.548476,0.00004621
0.549476,-0.00001215
0.550476,-0.00000602
0.551476,0.00009113
0.552476,-0.00003923
0.553476,0.00000729
0.554476,0.00001356
0.555476,0.00001458
0.556476,0.00002561
0.557476,-0.00001418
0.558476,-0.00002258
0.559476,0.00000731
0.560476,-0.00005534
0.561476,0.00008283
0.497187,0.00002798
0.498187,-0.00004074
0.499187,-0.00002865
0.500187,0.00001323
0.501187,-0.00000909
0.502187,-0.00000218
0.503187,0.00005532
0.504187,0.00001555
0.505187,0.00002023
0.506187,-0.00000539
0.507187,-0.00000668
0.508187,-0.00001157
0.509187,0.00003639
0.510187,0.00001704
0.511187,0.00000565
0.512187,0.00003383
0.513187,-0.00001136
0.514187,-0.00002070
0.515187,-0.00002599
0.516187,-0.00001817
0.517187,0.00002960
0.518187,0.00001555
0.519187,0.00002746
0.520187,0.00002165
0.521187,-0.00003405
0.522187,0.00001147
0.523187,-0.00000019
0.524187,-0.00004370
0.525187,-0.00002104
0.526187,0.00003373
0.527187,0.00001181
0.528187,0.00000753
0.529187,-0.00002253
0.530187,0.00002936
0.531187,0.00000828
0.532187,-0.00001834
0.533187,-0.00002843
0.534187,0.00003123
0.535187,-0.00002884
0.536187,0.00002264
0.537187,-0.00001769
0.538187,0.00001146
0.539187,0.00002449
0.540187,0.00000481
0.541187,-0.00000492
0.542187,0.00000976
0.543187,-0.00004328
0.544187,-0.00002475
0.545187,-0.00004624
0.546187,-0.00001176
0.547187,0.00002921
0.548187,-0.00005558
0.549187,0.00004545
0.550187,0.00001052
0.551187,-0.00001907
0.552187,-0.00001742
0.553187,0.00002211
0.554187,0.00000190
0.555187,-0.00000806
0.556187,-0.00002220
0.557187,0.00001780
0.558187,0.00003671
0.559187,-0.00001476
0.560187,-0.00005179
0.561187,-0.00004236
0.562187,0.00005004
0.563187,0.00003901
0.564187,-0.00000106
0.565187,0.00005376
0.566187,0.00002605
0.567187,-0.00002476
0.568187,-0.00001448
0.569187,-0.00002505
0.570187,-0.00000535
0.571187,0.00002778
0.572187,-0.00003013
0.573187,-0.00004776
0.574187,0.00002811
0.575187,-0.00006479
0.576187,-0.00003418
0.577187,-0.00001328
0.578187,-0.00000665
0.579187,0.00004027
0.580187,0.00002013
0.581187,-0.00000565
0.582187,0.00001436
0.583187,-0.00004419
0.584187,0.00000097
0.585187,-0.00000006
0.586187,-0.00004213
0.587187,0.00002583
0.588187,-0.00003112
0.589187,0.00005249
0.590187,0.00000305
0.591187,0.00004139
0.592187,-0.00003581
0.593187,-0.00001154
0.594187,-0.00001926
0.595187,-0.00003005
0.596187,0.00000864
0.529355,-0.00000197
0.530355,0.00000286
0.531355,0.00001929
0.532355,0.00001632
0.533355,0.00006562
0.534355,0.00000116
0.535355,0.00003366
0.536355,-0.00003704
0.537355,0.00000869
0.538355,0.00002872
0.539355,-0.00002840
0.540355,0.00001935
0.541355,-0.00002903
0.542355,-0.00001914
0.543355,0.00002536
0.544355,-0.00001418
0.545355,0.00000681
0.546355,0.00004566
0.547355,0.00002872
0.548355,0.00000130
0.549355,0.00003768
0.550355,0.00003719
0.551355,0.00003417
0.552355,0.00001043
0.553355,-0.00002067
0.554355,0.00005701
0.555355,0.00003015
0.556355,-0.00004947
0.557355,-0.00003681
0.558355,-0.00001329
0.559355,0.00005110
0.560355,0.00000129
0.561355,0.00000773
0.562355,0.00001209
0.563355,0.00004487
0.564355,-0.00002729
0.565355,0.00002716
0.566355,0.00003121
0.567355,0.00002578
0.568355,0.00001199
0.569355,0.00001655
0.570355,-0.00000916
0.571355,0.00001692
0.572355,0.00004602
0.573355,-0.00000661
0.574355,0.00001069
0.575355,0.00005070
0.576355,0.00001320
0.577355,0.00002031
0.578355,0.00007880
0.579355,0.00006435
0.580355,0.00005785
0.581355,0.00004836
0.582355,0.00001660
0.583355,0.00005713
0.584355,0.00011104
0.585355,0.00006594
0.586355,0.00006442
0.587355,0.00007527
0.588355,0.00005141
0.589355,0.00003770
0.590355,0.00003550
0.591355,0.00011701
0.592355,0.00003267
0.593355,0.00009147
0.594355,0.00004211
0.595355,0.00010533
0.596355,0.00010237
0.597355,0.00006038
0.598355,0.00008296
0.599355,0.00004923
0.600355,0.00005630
0.601355,0.00009716
0.602355,0.00009271
0.603355,0.00005318
0.604355,0.00006971
0.605355,0.00007791
0.606355,0.00012598
0.607355,0.00007502
0.608355,0.00010413
0.609355,0.00010789
0.610355,0.00001574
0.611355,0.00010777
0.612355,0.00005328
0.613355,0.00009216
0.614355,0.00010909
0.615355,0.00006472
0.616355,0.00007605
0.617355,0.00012186
0.618355,0.00010513
0.619355,0.00009069
0.620355,0.00003080
0.621355,0.00009764
0.622355,0.00012689
0.623355,0.00008050
0.624355,0.00006575
0.625355,0.00006311
0.626355,0.00006914
0.627355,0.00006987
0.628355,0.00008419
0.563298,0.00008983
0.564298,0.00005712
0.565298,0.00003194
0.566298,0.00005286
0.567298,0.00003731
0.568298,0.00013697
0.569298,0.00005773
0.570298,0.00004503
0.571298,0.00005167
0.572298,0.00005645
0.573298,0.00007955
0.574298,0.00000216
0.575298,0.00009048
0.576298,0.00007305
0.577298,0.00008273
0.578298,0.00003766
0.579298,0.00007173
0.580298,0.00003728
0.581298,0.00006478
0.582298,0.00007479
0.583298,0.00004377
0.584298,0.00007741
0.585298,0.00000536
0.586298,0.00006696
0.587298,0.00002770
0.588298,0.00002705
0.589298,0.00004861
0.590298,-0.00001558
0.591298,0.00008210
0.592298,0.00003450
0.593298,0.00004871
0.594298,-0.00004341
0.595298,0.00001028
0.596298,0.00005984
0.597298,0.00003614
0.598298,0.00004765
0.599298,0.00001396
0.600298,-0.00001285
0.601298,0.00002028
0.602298,-0.00000350
0.603298,-0.00003685
0.604298,0.00006371
0.605298,-0.00002031
0.606298,0.00003993
0.607298,0.00010139
0.608298,0.00000336
0.609298,0.00000946
0.610298,0.00001749
0.611298,-0.00003530
0.612298,-0.00002830
0.613298,0.00001988
0.614298,-0.00002765
0.615298,-0.00000355
0.616298,0.00002223
0.617298,-0.00003854
0.618298,-0.00003266
0.619298,0.00000092
0.620298,-0.00000593
0.621298,-0.00000814
0.622298,0.00001226
0.623298,-0.00000819
0.624298,-0.00001239
0.625298,0.00001192
0.626298,-0.00001570
0.627298,0.00000303
0.628298,0.00002824
0.629298,-0.00002567
0.630298,0.00001846
0.631298,0.00003927
0.632298,-0.00001662
0.633298,-0.00002391
0.634298,-0.00001027
0.635298,-0.00003320
0.636298,0.00001019
0.637298,-0.00002657
0.638298,0.00003448
0.639298,0.00001363
0.640298,-0.00000790
0.641298,0.00004227
0.642298,-0.00003965
0.643298,-0.00002033
0.644298,0.00004228
0.645298,0.00000865
0.646298,-0.00002457
0.647298,0.00001857
0.648298,-0.00001002
0.649298,0.00000203
0.650298,0.00000006
0.651298,0.00003604
0.652298,0.00002316
0.653298,0.00001390
0.654298,-0.00002155
0.655298,-0.00003634
0.656298,0.00001742
0.657298,-0.00002665
0.658298,-0.00002706
0.659298,-0.00000710
0.660298,-0.00001790
0.661298,0.00000807
0.662298,-0.00001464
0.596779,-0.00001752
0.597779,0.00000630
0.598779,-0.00010823
0.599779,-0.00000094
0.600779,-0.00001737
0.601779,-0.00001008
0.602779,-0.00002443
0.603779,0.00001769
0.604779,0.00007302
0.605779,-0.00004568
0.606779,-0.00003588
0.607779,0.00003626
0.608779,-0.00003635
0.609779,0.00004879
0.610779,-0.00004214
0.611779,0.00000628
0.612779,0.00006905
0.613779,-0.00002849
0.614779,-0.00001525
0.615779,-0.00005341
0.616779,0.00003668
0.617779,0.00000376
0.618779,-0.00000378
0.619779,0.00004528
0.620779,-0.00005341
0.621779,-0.00002597
0.622779,0.00004400
0.623779,0.00000088
0.624779,0.00003560
0.625779,-0.00001414
0.626779,0.00002871
0.627779,0.00004859
0.628779,-0.00000901
0.629779,-0.00003372
0.630779,-0.00000624
0.631779,-0.00001509
0.632779,0.00000184
0.633779,0.00001045
0.634779,0.00005286
0.635779,0.00001561
0.636779,-0.00002893
0.637779,0.00000162
0.638779,-0.00000344
0.639779,-0.00000026
0.640779,0.00005965
0.641779,-0.00001154
0.642779,0.00000070
0.643779,-0.00000017
0.644779,-0.00000328
0.645779,0.00005798
0.646779,0.00000192
0.647779,0.00001331
0.648779,0.00001321
0.649779,-0.00001811
0.650779,-0.00005362
0.651779,-0.00000153
0.652779,0.00001273
0.653779,-0.00000901
0.654779,-0.00000465
0.655779,0.00001125
0.656779,-0.00003677
0.657779,-0.00005173
0.658779,0.00001450
0.659779,-0.00001445
0.660779,-0.00000183
0.661779,0.00002221
0.662779,0.00002148
0.663779,-0.00000978
0.664779,-0.00002265
0.665779,-0.00005327
0.666779,0.00001507
0.667779,-0.00000935
0.668779,-0.00003337
0.669779,-0.00003597
0.670779,0.00002388
0.671779,-0.00003189
0.672779,-0.00001477
0.673779,0.00006167
0.674779,0.00004069
0.675779,-0.00000063
0.676779,0.00003847
0.677779,0.00004768
0.678779,0.00009004
0.679779,0.00013166
0.680779,0.00015193
0.681779,0.00018242
0.682779,0.00031227
0.683779,0.00034807
0.684779,0.00038462
0.685779,0.00039608
0.686779,0.00055290
0.687779,0.00059496
0.688779,0.00071796
0.689779,0.00081511
0.690779,0.00086684
0.691779,0.00104007
0.692779,0.00105802
0.693779,0.00113288
0.694779,0.00114774
0.695779,0.00116720
0.622228,0.00123407
0.623228,0.00116924
0.624228,0.00113118
0.625228,0.00105668
0.626228,0.00104922
0.627228,0.00092286
0.628228,0.00091332
0.629228,0.00070312
0.630228,0.00067002
0.631228,0.00057818
0.632228,0.00047956
0.633228,0.00038264
0.634228,0.00026566
0.635228,0.00016683
0.636228,0.00004944
0.637228,0.00007007
0.638228,-0.00008339
0.639228,-0.00010146
0.640228,-0.00007573
0.641228,-0.00017646
0.642228,-0.00014246
0.643228,-0.00024463
0.644228,-0.00021064
0.645228,-0.00024744
0.646228,-0.00023296
0.647228,-0.00027145
0.648228,-0.00028243
0.649228,-0.00022536
0.650228,-0.00023092
0.651228,-0.00025569
0.652228,-0.00025976
0.653228,-0.00022853
0.654228,-0.00022051
0.655228,-0.00017833
0.656228,-0.00016715
0.657228,-0.00013170
0.658228,-0.00018100
0.659228,-0.00014815
0.660228,-0.00014119
0.661228,-0.00001218
0.662228,-0.00006169
0.663228,-0.00006250
0.664228,0.00001771
0.665228,-0.00006046
0.666228,-0.00000524
0.667228,0.00003417
0.668228,0.00001762
0.669228,-0.00000397
0.670228,-0.00003065
0.671228,0.00000219
0.672228,0.00006117
0.673228,0.00003882
0.674228,0.00002404
0.675228,-0.00000131
0.676228,0.00002680
0.677228,0.00002676
0.678228,0.00003858
0.679228,0.00000140
0.680228,0.00006601
0.681228,0.00008607
0.682228,0.00001227
0.683228,0.00007692
0.684228,0.00008743
0.685228,0.00005402
0.686228,0.00003936
0.687228,0.00006239
0.688228,0.00003708
0.689228,0.00005498
0.690228,0.00012284
0.691228,0.00010340
0.692228,0.00008536
0.693228,0.00006099
0.694228,0.00006540
0.695228,0.00004337
0.696228,0.00005585
0.697228,0.00008789
0.698228,0.00007564
0.699228,0.00009800
0.700228,0.00007345
0.701228,0.00007228
0.702228,0.00012038
0.703228,0.00015461
0.704228,0.00010607
0.705228,0.00005810
0.706228,0.00016004
0.707228,0.00018780
0.708228,0.00006675
0.709228,0.00010591
0.710228,0.00012699
0.711228,0.00013788
0.712228,0.00007366
0.713228,0.00013717
0.714228,0.00017641
0.715228,0.00017330
0.716228,0.00021180
0.717228,0.00013661
0.718228,0.00012946
0.719228,0.00012472
0.720228,0.00013184
0.721228,0.00019112
0.654366,0.00016922
0.655366,0.00016258
0.656366,0.00011853
0.657366,0.00020562
0.658366,0.00018726
0.659366,0.00011757
0.660366,0.00015155
0.661366,0.00018653
0.662366,0.00014657
0.663366,0.00016213
0.664366,0.00014468
0.665366,0.00022314
0.666366,0.00020431
0.667366,0.00023491
0.668366,0.00014258
0.669366,0.00017884
0.670366,0.00016057
0.671366,0.00019534
0.672366,0.00021614
0.673366,0.00020142
0.674366,0.00023177
0.675366,0.00022088
0.676366,0.00021360
0.677366,0.00016830
0.678366,0.00022688
0.679366,0.00022283
0.680366,0.00022143
0.681366,0.00016575
0.682366,0.00016573
0.683366,0.00027784
0.684366,0.00024672
0.685366,0.00017097
0.686366,0.00018821
0.687366,0.00027531
0.688366,0.00027614
0.689366,0.00019852
0.690366,0.00026776
0.691366,0.00019716
0.692366,0.00021229
0.693366,0.00018966
0.694366,0.00021980
0.695366,0.00024640
0.696366,0.00021183
0.697366,0.00023081
0.698366,0.00020830
0.699366,0.00020821
0.700366,0.00021329
0.701366,0.00016878
0.702366,0.00017959
0.703366,0.00023880
0.704366,0.00026103
0.705366,0.00020171
0.706366,0.00020493
0.707366,0.00018608
0.708366,0.00023207
0.709366,0.00016376
0.710366,0.00016019
0.711366,0.00016990
0.712366,0.00021952
0.713366,0.00018639
0.714366,0.00017724
0.715366,0.00015747
0.716366,0.00013895
0.717366,0.00016441
0.718366,0.00018437
0.719366,0.00018646
0.720366,0.00011899
0.721366,0.00018871
0.722366,0.00015159
0.723366,0.00010601
0.724366,0.00014105
0.725366,0.00014748
0.726366,0.00009048
0.727366,0.00004085
0.728366,0.00009288
0.729366,0.00013773
0.730366,0.00016297
0.731366,0.00010905
0.732366,0.00013509
0.733366,0.00010234
0.734366,0.00013836
0.735366,0.00012384
0.736366,0.00008192
0.737366,0.00007457
0.738366,0.00010656
0.739366,0.00012147
0.740366,0.00012433
0.741366,0.00008695
0.742366,0.00004168
0.743366,0.00008937
0.744366,0.00011053
0.745366,0.00007641
0.746366,0.00005532
0.747366,0.00012213
0.748366,0.00012216
0.749366,0.00009359
0.750366,0.00006368
0.751366,0.00005440
0.752366,0.00005220
0.753366,0.00007254
0.687602,-0.00000042
0.688602,0.00006988
0.689602,0.00005297
0.690602,0.00007203
0.691602,0.00005513
0.692602,0.00004743
0.693602,0.00002617
0.694602,0.00005181
0.695602,0.00000839
0.696602,0.00008910
0.697602,0.00004752
0.698602,0.00002889
0.699602,0.00007043
0.700602,-0.00000390
0.701602,0.00001778
0.702602,0.00002732
0.703602,0.00005490
0.704602,0.00002207
0.705602,-0.00005620
0.706602,-0.00000225
0.707602,0.00001464
0.708602,-0.00001653
0.709602,-0.00001559
0.710602,0.00006297
0.711602,0.00001143
0.712602,0.00000703
0.713602,0.00002904
0.714602,0.00004566
0.715602,0.00004897
0.716602,0.00004043
0.717602,-0.00000376
0.718602,0.00006931
0.719602,0.00005439
0.720602,0.00000418
0.721602,0.00005988
0.722602,-0.00001043
0.723602,0.00002859
0.724602,-0.00000601
0.725602,0.00003934
0.726602,0.00000101
0.727602,-0.00002019
0.728602,0.00001579
0.729602,-0.00002371
0.730602,0.00004368
0.731602,0.00001965
0.732602,-0.00005285
0.733602,0.00004302
0.734602,0.00005735
0.735602,0.00007645
0.736602,-0.00002114
0.737602,0.00002954
0.738602,-0.00001345
0.739602,0.00007372
0.740602,0.00002253
0.741602,0.00000630
0.742602,-0.00002750
0.743602,-0.00001141
0.744602,-0.00002676
0.745602,-0.00002052
0.746602,0.00000961
0.747602,0.00002680
0.748602,0.00006393
0.749602,-0.00000914
0.750602,0.00003400
0.751602,-0.00006092
0.752602,-0.00003227
0.753602,0.00003837
0.754602,-0.00005120
0.755602,0.00004397
0.756602,-0.00002053
0.757602,-0.00002431
0.758602,0.00001942
0.759602,0.00000713
0.760602,0.00003892
0.761602,-0.00004722
0.762602,0.00005308
0.763602,0.00000251
0.764602,-0.00000176
0.765602,0.00000923
0.766602,-0.00000968
0.767602,-0.00000498
0.768602,-0.00007285
0.769602,-0.00001656
0.770602,-0.00001747
0.771602,0.00003047
0.772602,-0.00003420
0.773602,-0.00000502
0.774602,-0.00005780
0.775602,0.00000258
0.776602,0.00000136
0.777602,0.00002628
0.778602,-0.00003047
0.779602,0.00001367
0.780602,0.00002186
0.781602,-0.00000942
0.782602,0.00000657
0.783602,-0.00000002
0.784602,0.00001417
0.785602,0.00002195
0.786602,0.00000262
0.721469,0.00000720
0.722469,0.00003747
0.723469,0.00000802
0.724469,-0.00000596
0.725469,0.00001450
0.726469,-0.00004472
0.727469,-0.00001983
0.728469,-0.00002142
0.729469,0.00001287
0.730469,0.00002614
0.731469,0.00001863
0.732469,0.00003702
0.733469,-0.00000136
0.734469,0.00000462
0.735469,-0.00003761
0.736469,-0.00000473
0.737469,0.00002681
0.738469,-0.00007262
0.739469,-0.00000628
0.740469,-0.00000457
0.741469,-0.00000855
0.742469,-0.00000747
0.743469,0.00000591
0.744469,0.00004441
0.745469,-0.00005213
0.746469,0.00010128
0.747469,0.00005965
0.748469,0.00001494
0.749469,-0.00001345
0.750469,-0.00000258
0.751469,-0.00000225
0.752469,-0.00001369
0.753469,-0.00000856
0.754469,-0.00001175
0.755469,0.00002176
0.756469,-0.00000832
0.757469,-0.00003671
0.758469,0.00001898
0.759469,-0.00001681
0.760469,0.00002746
0.761469,0.00003267
0.762469,0.00001429
0.763469,0.00000572
0.764469,0.00003521
0.765469,0.00002661
0.766469,-0.00000244
0.767469,-0.00003177
0.768469,0.00001902
0.769469,0.00004624
0.770469,0.00000946
0.771469,0.00001754
0.772469,0.00006189
0.773469,-0.00004989
0.774469,0.00003549
0.775469,0.00001387
0.776469,-0.00000735
0.777469,-0.00000967
0.778469,-0.00000982
0.779469,-0.00003116
0.780469,0.00000595
0.781469,-0.00000767
0.782469,-0.00005259
0.783469,0.00005303
0.784469,-0.00000603
0.785469,0.00004350
0.786469,0.00000825
0.787469,-0.00003793
0.788469,0.00002733
0.789469,0.00003985
0.790469,0.00002440
0.791469,-0.00004675
0.792469,0.00000197
0.793469,0.00003011
0.794469,0.00001005
0.795469,0.00001866
0.796469,0.00002946
0.797469,0.00000025
0.798469,0.00001085
0.799469,0.00002835
0.800469,0.00004076
0.801469,-0.00004984
0.802469,0.00005269
0.803469,0.00001263
0.804469,0.00001933
0.805469,-0.00004337
0.806469,-0.00001831
0.807469,-0.00001135
0.808469,-0.00002689
0.809469,-0.00003904
0.810469,-0.00002511
0.811469,-0.00001111
0.812469,-0.00000817
0.813469,0.00003173
0.814469,-0.00005678
0.815469,0.00001205
0.816469,-0.00002754
0.817469,-0.00003255
0.818469,0.00002384
0.819469,0.00001407
0.820469,-0.00002027
0.754828,-0.00000337
0.755828,-0.00003211
0.756828,-0.00001913
0.757828,0.00003440
0.758828,-0.00002253
0.759828,0.00001924
0.760828,0.00003222
0.761828,0.00003932
0.762828,-0.00006154
0.763828,-0.00001388
0.764828,0.00003935
0.765828,0.00002735
0.766828,-0.00002237
0.767828,-0.00000168
0.768828,0.00000304
0.769828,0.00002589
0.770828,-0.00000692
0.771828,0.00005386
0.772828,0.00006520
0.773828,-0.00001392
0.774828,0.00003109
0.775828,-0.00000278
0.776828,-0.00005176
0.777828,-0.00006953
0.778828,0.00003162
0.779828,-0.00003888
0.780828,0.00005060
0.781828,0.00003392
0.782828,-0.00000038
0.783828,0.00002798
0.784828,0.00002722
0.785828,-0.00001513
0.786828,0.00002063
0.787828,-0.00000209
0.788828,-0.00007329
0.789828,0.00000614
0.790828,0.00008409
0.791828,0.00001589
0.792828,-0.00004811
0.793828,-0.00001888
0.794828,-0.00007147
0.795828,0.00002835
0.796828,0.00001682
0.797828,-0.00002417
0.798828,-0.00001625
0.799828,0.00001060
0.800828,-0.00000363
0.801828,0.00008594
0.802828,-0.00000117
0.803828,-0.00001637
0.804828,-0.00006986
0.805828,0.00002512
0.806828,0.00000823
0.807828,-0.00002494
0.808828,0.00000797
0.809828,-0.00003612
0.810828,0.00000533
0.811828,0.00002971
0.812828,-0.00005106
0.813828,-0.00004284
0.814828,-0.00001262
0.815828,-0.00005713
0.816828,-0.00002208
0.817828,-0.00003513
0.818828,0.00004026
0.819828,0.00002808
0.820828,-0.00002638
0.821828,-0.00002035
0.822828,0.00003114
0.823828,-0.00000945
0.824828,0.00001219
0.825828,-0.00000431
0.826828,0.00001460
0.827828,-0.00001817
0.828828,-0.00001024
0.829828,-0.00000002
0.830828,-0.00000976
0.831828,0.00001899
0.832828,-0.00000706
0.833828,-0.00003652
0.834828,-0.00000413
0.835828,0.00006479
0.836828,0.00001357
0.837828,0.00002313
0.838828,-0.00000451
0.839828,0.00003474
0.840828,-0.00003531
0.841828,-0.00001902
0.842828,0.00000600
0.843828,-0.00002349
0.844828,-0.00000470
0.845828,0.00000207
0.846828,-0.00002251
0.847828,-0.00001448
0.848828,0.00001536
0.849828,-0.00002339
0.850828,0.00002205
0.851828,0.00000359
0.852828,0.00000548
0.853828,0.00006869
0.780785,0.00001721
0.781785,-0.00000294
0.782785,-0.00002650
0.783785,0.00004902
0.784785,0.00000604
0.785785,-0.00000724
0.786785,0.00000277
0.787785,-0.00001173
0.788785,0.00002842
0.789785,0.00003696
0.790785,-0.00006590
0.791785,-0.00000137
0.792785,-0.00000570
0.793785,-0.00001185
0.794785,-0.00001579
0.795785,0.00002437
0.796785,0.00000491
0.797785,-0.00001423
0.798785,0.00001270
0.799785,0.00002475
0.800785,0.00000070
0.801785,-0.00001056
0.802785,-0.00003575
0.803785,0.00005033
0.804785,-0.00002633
0.805785,0.00002366
0.806785,0.00002105
0.807785,-0.00001729
0.808785,0.00003342
0.809785,0.00006887
0.810785,-0.00002150
0.811785,-0.00003506
0.812785,0.00000796
0.813785,-0.00005110
0.814785,-0.00003107
0.815785,-0.00001979
0.816785,0.00000864
0.817785,0.00001731
0.818785,-0.00002386
0.819785,-0.00001147
0.820785,0.00002239
0.821785,0.00004701
0.822785,0.00000237
0.823785,0.00000959
0.824785,-0.00001045
0.825785,0.00001967
0.826785,0.00001314
0.827785,0.00000059
0.828785,0.00007503
0.829785,-0.00003134
0.830785,-0.00006509
0.831785,-0.00000271
0.832785,-0.00003461
0.833785,0.00000579
0.834785,-0.00001311
0.835785,0.00003844
0.836785,-0.00004333
0.837785,0.00001432
0.838785,-0.00000397
0.839785,-0.00002686
0.840785,-0.00001346
0.841785,0.00000586
0.842785,-0.00002842
0.843785,0.00001297
0.844785,0.00002937
0.845785,-0.00002742
0.846785,0.00007239
0.847785,0.00003493
0.848785,0.00002683
0.849785,-0.00000269
0.850785,0.00001949
0.851785,-0.00001084
0.852785,0.00005023
0.853785,-0.00000842
0.854785,0.00000449
0.855785,0.00001240
0.856785,0.00008806
0.857785,0.00000176
0.858785,0.00002433
0.859785,0.00004076
0.860785,0.00003489
0.861785,0.00004189
0.862785,0.00006957
0.863785,-0.00004106
0.864785,0.00005378
0.865785,0.00006896
0.866785,-0.00000949
0.867785,0.00004230
0.868785,0.00011833
0.869785,0.00004575
0.870785,0.00010678
0.871785,0.00008437
0.872785,0.00004078
0.873785,0.00008290
0.874785,0.00011811
0.875785,0.00007165
0.876785,0.00004223
0.877785,0.00008660
0.878785,0.00009712
0.879785,0.00005637
0.813357,0.00005009
0.814357,0.00009495
0.815357,0.00009109
0.816357,0.00005079
0.817357,0.00011016
0.818357,0.00009875
0.819357,0.00008289
0.820357,0.00008137
0.821357,0.00002612
0.822357,0.00011987
0.823357,0.00007712
0.824357,0.00011691
0.825357,0.00011627
0.826357,0.00009360
0.827357,0.00009849
0.828357,0.00006113
0.829357,0.00007987
0.830357,0.00006155
0.831357,0.00012545
0.832357,0.00009453
0.833357,0.00009643
0.834357,0.00009174
0.835357,0.00005565
0.836357,0.00002723
0.837357,0.00010384
0.838357,0.00005809
0.839357,0.00008421
0.840357,0.00007859
0.841357,0.00007679
0.842357,0.00005251
0.843357,0.00003782
0.844357,0.00016685
0.845357,0.00004335
0.846357,0.00009575
0.847357,0.00007909
0.848357,0.00006005
0.849357,0.00008179
0.850357,0.00006613
0.851357,0.00008971
0.852357,0.00005722
0.853357,0.00006184
0.854357,0.00008328
0.855357,0.00006564
0.856357,0.00005759
0.857357,0.00006382
0.858357,0.00005684
0.859357,0.00001016
0.860357,0.00002540
0.861357,0.00002427
0.862357,-0.00000754
0.863357,0.00003780
0.864357,0.00002455
0.865357,0.00004426
0.866357,0.00007529
0.867357,0.00003354
0.868357,0.00002469
0.869357,0.00000376
0.870357,0.00003366
0.871357,0.00005278
0.872357,0.00003490
0.873357,0.00000016
0.874357,0.00002654
0.875357,0.00006159
0.876357,0.00004339
0.877357,0.00002106
0.878357,0.00007531
0.879357,0.00003606
0.880357,0.00002516
0.881357,0.00004740
0.882357,0.00001172
0.883357,0.00008597
0.884357,0.00004336
0.885357,0.00008854
0.886357,0.00006262
0.887357,0.00005811
0.888357,-0.00001528
0.889357,-0.00000360
0.890357,-0.00002024
0.891357,0.00003504
0.892357,0.00002262
0.893357,0.00000739
0.894357,-0.00000077
0.895357,0.00006605
0.896357,0.00002794
0.897357,0.00003672
0.898357,0.00004898
0.899357,-0.00004999
0.900357,0.00005684
0.901357,0.00001286
0.902357,-0.00001795
0.903357,-0.00002843
0.904357,0.00000851
0.905357,-0.00000923
0.906357,0.00002217
0.907357,-0.00001356
0.908357,0.00002834
0.909357,-0.00000606
0.910357,-0.00002088
0.911357,-0.00001699
0.912357,0.00000453
0.846922,-0.00001020
0.847922,-0.00000237
0.848922,0.00003099
0.849922,-0.00001861
0.850922,0.00002554
0.851922,0.00000439
0.852922,-0.00002665
0.853922,0.00001419
0.854922,-0.00000063
0.855922,0.00002715
0.856922,-0.00003371
0.857922,-0.00000431
0.858922,0.00001392
0.859922,-0.00002147
0.860922,0.00003176
0.861922,0.00003538
0.862922,0.00006257
0.863922,0.00002032
0.864922,-0.00001666
0.865922,0.00002597
0.866922,0.00003545
0.867922,-0.00000688
0.868922,-0.00000824
0.869922,0.00000498
0.870922,0.00003956
0.871922,-0.00002245
0.872922,-0.00003012
0.873922,-0.00001151
0.874922,-0.00001639
0.875922,-0.00005711
0.876922,-0.00001311
0.877922,-0.00003019
0.878922,-0.00002331
0.879922,-0.00005179
0.880922,-0.00001827
0.881922,0.00002767
0.882922,-0.00005829
0.883922,0.00004672
0.884922,0.00000880
0.885922,-0.00002807
0.886922,-0.00006058
0.887922,0.00001442
0.888922,-0.00003642
0.889922,0.00001097
0.890922,-0.00000688
0.891922,-0.00005015
0.892922,0.00000605
0.893922,0.00002704
0.894922,-0.00000675
0.895922,-0.00000254
0.896922,-0.00001895
0.897922,0.00001144
0.898922,-0.00007247
0.899922,0.00007738
0.900922,0.00001075
0.901922,-0.00001478
0.902922,-0.00001592
0.903922,-0.00000857
0.904922,-0.00002639
0.905922,0.00002994
0.906922,0.00002670
0.907922,0.00005885
0.908922,0.00001152
0.909922,-0.00001349
0.910922,-0.00000645
0.911922,0.00001880
0.912922,0.00000053
0.913922,-0.00003239
0.914922,0.00001312
0.915922,-0.00000005
0.916922,0.00004154
0.917922,0.00001344
0.918922,-0.00003680
0.919922,-0.00004694
0.920922,-0.00004666
0.921922,-0.00002516
0.922922,0.00003462
0.923922,-0.00004141
0.924922,0.00001234
0.925922,-0.00002728
0.926922,0.00003067
0.927922,-0.00001997
0.928922,-0.00000378
0.929922,0.00001365
0.930922,0.00000698
0.931922,-0.00001769
0.932922,-0.00002764
0.933922,-0.00003545
0.934922,0.00000620
0.935922,-0.00002986
0.936922,-0.00003868
0.937922,0.00001570
0.938922,0.00002761
0.939922,-0.00003274
0.940922,0.00000034
0.941922,0.00002680
0.942922,-0.00001326
0.943922,0.00000111
0.944922,0.00000863
0.945922,-0.00002985
0.880064,0.00001606
0.881064,-0.00004223
0.882064,0.00000123
0.883064,-0.00005635
0.884064,0.00002351
0.885064,-0.00002394
0.886064,-0.00001819
0.887064,-0.00000701
0.888064,-0.00003390
0.889064,0.00005147
0.890064,0.00000629
0.891064,0.00000806
0.892064,0.00003168
0.893064,0.00005108
0.894064,0.00007509
0.895064,0.00012117
0.896064,0.00015672
0.897064,0.00013482
0.898064,0.00015116
0.899064,0.00024462
0.900064,0.00026651
0.901064,0.00035157
0.902064,0.00048331
0.903064,0.00052985
0.904064,0.00054578
0.905064,0.00066136
0.906064,0.00082635
0.907064,0.00086609
0.908064,0.00090736
0.909064,0.00105720
0.910064,0.00108400
0.911064,0.00114612
0.912064,0.00114726
0.913064,0.00117773
0.914064,0.00122146
0.915064,0.00114306
0.916064,0.00107968
0.917064,0.00111326
0.918064,0.00094176
0.919064,0.00092691
0.920064,0.00078238
0.921064,0.00064218
0.922064,0.00056357
0.923064,0.00053952
0.924064,0.00039404
0.925064,0.00028510
0.926064,0.00020027
0.927064,0.00017985
0.928064,0.00008453
0.929064,-0.00003330
0.930064,-0.00003287
0.931064,-0.00011872
0.932064,-0.00018035
0.933064,-0.00020262
0.934064,-0.00019730
0.935064,-0.00020552
0.936064,-0.00025035
0.937064,-0.00027045
0.938064,-0.00030185
0.939064,-0.00026243
0.940064,-0.00025970
0.941064,-0.00023109
0.942064,-0.00028152
0.943064,-0.00020892
0.944064,-0.00020956
0.945064,-0.00026414
0.946064,-0.00022841
0.947064,-0.00015001
0.948064,-0.00012498
0.949064,-0.00016677
0.950064,-0.00012236
0.951064,-0.00012924
0.952064,-0.00007302
0.953064,-0.00007618
0.954064,-0.00008620
0.955064,-0.00009643
0.956064,0.00002721
0.957064,-0.00002522
0.958064,-0.00004158
0.959064,-0.00001834
0.960064,0.00000120
0.961064,0.00001097
0.962064,0.00002514
0.963064,-0.00003462
0.964064,-0.00001896
0.965064,0.00003984
0.966064,0.00004590
0.967064,0.00002312
0.968064,0.00000850
0.969064,0.00002469
0.970064,0.00002151
0.971064,0.00004329
0.972064,-0.00000853
0.973064,0.00005374
0.974064,0.00007102
0.975064,-0.00000728
0.976064,0.00004305
0.977064,0.00005289
0.978064,0.00007903
0.979064,0.00004641
0.905161,0.00005949
0.906161,0.00009440
0.907161,0.00006181
0.908161,0.00008238
0.909161,0.00001987
0.910161,0.00008544
0.911161,0.00011845
0.912161,0.00007427
0.913161,0.00006061
0.914161,0.00003035
0.915161,0.00008711
0.916161,0.00012995
0.917161,0.00009135
0.918161,0.00009957
0.919161,0.00011157
0.920161,0.00011650
0.921161,0.00016698
0.922161,0.00012577
0.923161,0.00013255
0.924161,0.00016908
0.925161,0.00010299
0.926161,0.00012098
0.927161,0.00013494
0.928161,0.00013835
0.929161,0.00013470
0.930161,0.00014537
0.931161,0.00010203
0.932161,0.00020067
0.933161,0.00017469
0.934161,0.00012653
0.935161,0.00021547
0.936161,0.00013627
0.937161,0.00014198
0.938161,0.00012066
0.939161,0.00014233
0.940161,0.00019002
0.941161,0.00018258
0.942161,0.00015346
0.943161,0.00018518
0.944161,0.00020503
0.945161,0.00013808
0.946161,0.00015731
0.947161,0.00023791
0.948161,0.00015646
0.949161,0.00016322
0.950161,0.00017900
0.951161,0.00018326
0.952161,0.00023348
0.953161,0.00019332
0.954161,0.00016919
0.955161,0.00014666
0.956161,0.00015852
0.957161,0.00019968
0.958161,0.00017839
0.959161,0.00026257
0.960161,0.00021842
0.961161,0.00023011
0.962161,0.00019561
0.963161,0.00023927
0.964161,0.00022407
0.965161,0.00021779
0.966161,0.00020366
0.967161,0.00024143
0.968161,0.00022858
0.969161,0.00021294
0.970161,0.00024741
0.971161,0.00018856
0.972161,0.00021557
0.973161,0.00021620
0.974161,0.00018984
0.975161,0.00023058
0.976161,0.00021884
0.977161,0.00022732
0.978161,0.00020204
0.979161,0.00022873
0.980161,0.00014698
0.981161,0.00020044
0.982161,0.00024708
0.983161,0.00020253
0.984161,0.00018876
0.985161,0.00018134
0.986161,0.00017590
0.987161,0.00025139
0.988161,0.00020022
0.989161,0.00017770
0.990161,0.00017073
0.991161,0.00023391
0.992161,0.00026489
0.993161,0.00015286
0.994161,0.00020846
0.995161,0.00018157
0.996161,0.00020305
0.997161,0.00012965
0.998161,0.00017042
0.999161,0.00017816
1.000161,0.00016451
1.001161,0.00020177
1.002161,0.00009462
1.003161,0.00019135
1.004161,0.00021621
0.938299,0.00011537
0.939299,0.00020200
0.940299,0.00011644
0.941299,0.00016792
0.942299,0.00015542
0.943299,0.00022239
0.944299,0.00009671
0.945299,0.00008807
0.946299,0.00015103
0.947299,0.00012459
0.948299,0.00009942
0.949299,0.00011741
0.950299,0.00009427
0.951299,0.00016046
0.952299,0.00005615
0.953299,0.00009877
0.954299,0.00015807
0.955299,0.00011622
0.956299,0.00012645
0.957299,0.00009146
0.958299,0.00005740
0.959299,0.00002943
0.960299,0.00008087
0.961299,0.00007829
0.962299,0.00012549
0.963299,0.00012916
0.964299,0.00004043
0.965299,0.00009402
0.966299,0.00011550
0.967299,0.00009207
0.968299,0.00008370
0.969299,0.00005409
0.970299,0.00004040
0.971299,0.00008463
0.972299,0.00007024
0.973299,0.00006705
0.974299,0.00009247
0.975299,0.00005782
0.976299,0.00003892
0.977299,0.00000740
0.978299,0.00006150
0.979299,0.00003142
0.980299,0.00004928
0.981299,0.00009739
0.982299,-0.00000947
0.983299,0.00002035
0.984299,0.00005652
0.985299,0.00003074
0.986299,0.00000164
0.987299,0.00007721
0.988299,0.00006665
0.989299,0.00002978
0.990299,0.00006032
0.991299,-0.00003700
0.992299,0.00004294
0.993299,0.00008183
0.994299,0.00005329
0.995299,0.00003576
0.996299,-0.00001426
0.997299,0.00002758
0.998299,0.00000185
0.999299,-0.00001477
1.000299,-0.00000001
1.001299,0.00004907
1.002299,0.00001680
1.003299,-0.00000446
1.004299,-0.00001928
1.005299,0.00003474
1.006299,-0.00000820
1.007299,-0.00001091
1.008299,-0.00000350
1.009299,-0.00004693
1.010299,0.00002432
1.011299,0.00001980
1.012299,-0.00001887
1.013299,0.00004678
1.014299,0.00002062
1.015299,0.00005404
1.016299,0.00000725
1.017299,-0.00002353
1.018299,0.00001432
1.019299,-0.00003236
1.020299,0.00003373
1.021299,0.00004144
1.022299,0.00004381
1.023299,0.00001277
1.024299,-0.00000054
1.025299,-0.00000222
1.026299,0.00001108
1.027299,0.00003020
1.028299,0.00002637
1.029299,0.00001179
1.030299,0.00003636
1.031299,0.00000401
1.032299,0.00000026
1.033299,0.00002016
1.034299,-0.00000534
1.035299,-0.00002692
1.036299,-0.00000638
1.037299,0.00002591
0.971144,-0.00004450
0.972144,0.00005923
0.973144,0.00002195
0.974144,-0.00003937
0.975144,0.00000841
0.976144,0.00003728
0.977144,-0.00002233
0.978144,0.00002505
0.979144,0.00002548
0.980144,-0.00000723
0.981144,0.00000661
0.982144,0.00001691
0.983144,-0.00001183
0.984144,0.00003359
0.985144,-0.00003806
0.986144,-0.00000350
0.987144,-0.00001200
0.988144,-0.00005848
0.989144,-0.00001117
0.990144,0.00004482
0.991144,-0.00000184
0.992144,-0.00002529
0.993144,-0.00001685
0.994144,-0.00001557
0.995144,-0.00002013
0.996144,-0.00001664
0.997144,0.00004316
0.998144,-0.00003138
0.999144,0.00004268
1.000144,-0.00002367
1.001144,-0.00004277
1.002144,-0.00001831
1.003144,-0.00003189
1.004144,0.00001772
1.005144,-0.00002098
1.006144,-0.00001052
1.007144,0.00003430
1.008144,-0.00005231
1.009144,0.00002859
1.010144,0.00002326
1.011144,0.00004217
1.012144,-0.00004587
1.013144,-0.00003699
1.014144,0.00003746
1.015144,0.00003371
1.016144,-0.00001268
1.017144,-0.00003301
1.018144,0.00001382
1.019144,0.00004923
1.020144,0.00003484
1.021144,-0.00000554
1.022144,0.00005834
1.023144,-0.00001218
1.024144,-0.00005460
1.025144,0.00001344
1.026144,0.00004200
1.027144,-0.00000705
1.028144,0.00001093
1.029144,0.00003720
1.030144,0.00002197
1.031144,0.00001280
1.032144,0.00000017
1.033144,-0.00002111
1.034144,0.00003983
1.035144,-0.00001718
1.036144,0.00003037
1.037144,-0.00000685
1.038144,-0.00000148
1.039144,0.00002545
1.040144,-0.00002486
1.041144,0.00000131
1.042144,-0.00003166
1.043144,-0.00000302
1.044144,-0.00000286
1.045144,-0.00003460
1.046144,-0.00003825
1.047144,-0.00001547
1.048144,0.00003533
1.049144,-0.00007118
1.050144,0.00000437
1.051144,0.00001322
1.052144,0.00003587
1.053144,0.00001461
1.054144,-0.00004374
1.055144,-0.00000023
1.056144,0.00004109
1.057144,-0.00002987
1.058144,0.00000404
1.059144,0.00000574
1.060144,0.00003716
1.061144,0.00003563
1.062144,-0.00007447
1.063144,-0.00001615
1.064144,-0.00000466
1.065144,0.00003395
1.066144,0.00004975
1.067144,-0.00000277
1.068144,0.00002889
1.069144,-0.00007832
1.070144,0.00004823
1.004756,0.00001112
1.005756,0.00004071
1.006756,-0.00003025
1.007756,-0.00004396
1.008756,0.00002551
1.009756,-0.00006252
1.010756,-0.00000950
1.011756,-0.00001353
1.012756,0.00000112
1.013756,-0.00001052
1.014756,0.00003319
1.015756,0.00002536
1.016756,0.00002029
1.017756,-0.00000175
1.018756,-0.00000050
1.019756,0.00003957
1.020756,0.00004424
1.021756,0.00003155
1.022756,-0.00002359
1.023756,-0.00004100
1.024756,0.00000191
1.025756,-0.00003046
1.026756,0.00000582
1.027756,0.00003721
1.028756,0.00004103
1.029756,-0.00000283
1.030756,-0.00003391
1.031756,-0.00001656
1.032756,0.00003358
1.033756,-0.00000459
1.034756,0.00003916
1.035756,0.00001140
1.036756,-0.00003658
1.037756,-0.00001360
1.038756,0.00001402
1.039756,-0.00002939
1.040756,-0.00001797
1.041756,0.00001880
1.042756,-0.00002138
1.043756,0.00000348
1.044756,0.00003941
1.045756,-0.00001196
1.046756,-0.00002848
1.047756,0.00001782
1.048756,0.00000933
1.049756,0.00002951
1.050756,0.00006413
1.051756,0.00002917
1.052756,0.00000778
1.053756,-0.00001512
1.054756,0.00004012
1.055756,0.00001247
1.056756,-0.00003128
1.057756,-0.00001680
1.058756,0.00000366
1.059756,-0.00000551
1.060756,-0.00001182
1.061756,-0.00001097
1.062756,-0.00003240
1.063756,0.00000345
1.064756,0.00003702
1.065756,0.00001644
1.066756,0.00000659
1.067756,0.00005401
1.068756,0.00000712
1.069756,0.00000792
1.070756,0.00001495
1.071756,-0.00000297
1.072756,-0.00003060
1.073756,0.00008944
1.074756,0.00003899
1.075756,0.00004336
1.076756,-0.00002079
1.077756,-0.00001662
1.078756,0.00000624
1.079756,-0.00005155
1.080756,-0.00002404
1.081756,0.00000132
1.082756,-0.00000823
1.083756,-0.00001730
1.084756,0.00000935
1.085756,0.00001933
1.086756,-0.00002061
1.087756,0.00001330
1.088756,-0.00003402
1.089756,0.00002928
1.090756,0.00002856
1.091756,0.00002287
1.092756,0.00002610
1.093756,0.00001904
1.094756,-0.00004053
1.095756,-0.00002716
1.096756,0.00000515
1.097756,0.00003627
1.098756,-0.00000774
1.099756,-0.00002425
1.100756,-0.00000051
1.101756,-0.00002374
1.102756,-0.00000846
1.103756,-0.00002221
1.038222,0.00004096
1.039222,0.00003615
1.040222,0.00009575
1.041222,-0.00002425
1.042222,0.00003869
1.043222,0.00001916
1.044222,-0.00002008
1.045222,-0.00011553
1.046222,0.00002961
1.047222,0.00005744
1.048222,-0.00004817
1.049222,-0.00003034
1.050222,0.00003252
1.051222,-0.00002594
1.052222,0.00000325
1.053222,0.00001260
1.054222,0.00000414
1.055222,-0.00006314
1.056222,-0.00001840
1.057222,0.00000720
1.058222,-0.00001548
1.059222,-0.00001523
1.060222,-0.00001302
1.061222,0.00003505
1.062222,0.00001383
1.063222,-0.00003621
1.064222,-0.00003787
1.065222,-0.00002665
1.066222,-0.00001353
1.067222,0.00002299
1.068222,0.00004011
1.069222,-0.00007641
1.070222,0.00002553
1.071222,-0.00002653
1.072222,0.00003107
1.073222,-0.00002781
1.074222,-0.00001378
1.075222,-0.00002896
1.076222,-0.00001305
1.077222,0.00000371
1.078222,0.00004137
1.079222,0.00000503
1.080222,0.00001244
1.081222,-0.00001492
1.082222,-0.00004011
1.083222,0.00003888
1.084222,0.00003445
1.085222,0.00001418
1.086222,-0.00001042
1.087222,-0.00002223
1.088222,0.00004107
1.089222,-0.00001431
1.090222,0.00004989
1.091222,-0.00000194
1.092222,-0.00004279
1.093222,0.00002624
1.094222,0.00004796
1.095222,0.00002447
1.096222,0.00002827
1.097222,-0.00002371
1.098222,0.00002819
1.099222,-0.00002385
1.100222,0.00003468
1.101222,-0.00003000
1.102222,0.00000177
1.103222,-0.00001153
1.104222,-0.00004241
1.105222,-0.00001290
1.106222,0.00005775
1.107222,0.00001352
1.108222,-0.00002805
1.109222,0.00004124
1.110222,0.00002570
1.111222,0.00000590
1.112222,0.00001431
1.113222,-0.00001721
1.114222,0.00003015
1.115222,0.00001325
1.116222,-0.00001462
1.117222,0.00003767
1.118222,0.00001547
1.119222,0.00002711
1.120222,0.00006925
1.121222,-0.00001415
1.122222,-0.00000248
1.123222,0.00001354
1.124222,0.00000806
1.125222,0.00006378
1.126222,0.00000865
1.127222,0.00001972
1.128222,0.00002974
1.129222,-0.00000549
1.130222,-0.00000910
1.131222,0.00005684
1.132222,0.00000873
1.133222,-0.00001295
1.134222,0.00000824
1.135222,0.00008428
1.136222,0.00003720
1.137222,0.00004173
1.065452,0.00004221
1.066452,0.00001180
1.067452,0.00002445
1.068452,-0.00002420
1.069452,0.00000674
1.070452,-0.00001398
1.071452,0.00001133
1.072452,0.00004422
1.073452,0.00006468
1.074452,0.00002710
1.075452,0.00003960
1.076452,0.00003620
1.077452,0.00011787
1.078452,-0.00002980
1.079452,0.00002512
1.080452,0.00012262
1.081452,0.00002263
1.082452,0.00009408
1.083452,0.00002233
1.084452,0.00005116
1.085452,0.00008649
1.086452,0.00008771
1.087452,0.00010078
1.088452,0.00011772
1.089452,0.00002523
1.090452,0.00007819
1.091452,0.00005970
1.092452,-0.00001389
1.093452,0.00007259
1.094452,0.00007258
1.095452,0.00003554
1.096452,0.00012200
1.097452,0.00006743
1.098452,0.00004722
1.099452,0.00008006
1.100452,0.00007467
1.101452,0.00004540
1.102452,0.00006058
1.103452,0.00009802
1.104452,0.00003317
1.105452,0.00012087
1.106452,0.00004111
1.107452,0.00007348
1.108452,0.00011022
1.109452,0.00008779
1.110452,0.00009880
1.111452,0.00006731
1.112452,0.00004898
1.113452,0.00006838
1.114452,0.00004703
1.115452,0.00007173
1.116452,0.00006639
1.117452,0.00013369
1.118452,0.00008232
1.119452,0.00012681
1.120452,0.00006995
1.121452,0.00010417
1.122452,0.00009255
1.123452,0.00004392
1.124452,0.00006929
1.125452,0.00006699
1.126452,0.00006001
1.127452,0.00009274
1.128452,0.00005046
1.129452,0.00006213
1.130452,0.00002610
1.131452,0.00008212
1.132452,0.00006321
1.133452,0.00004758
1.134452,0.00003361
1.135452,0.00004592
1.136452,0.00006196
1.137452,0.00007211
1.138452,0.00005076
1.139452,0.00006514
1.140452,0.00008674
1.141452,0.00008135
1.142452,0.00010803
1.143452,0.00010741
1.144452,0.00009010
1.145452,0.00004056
1.146452,0.00005237
1.147452,0.00002701
1.148452,0.00009510
1.149452,0.00004472
1.150452,0.00013694
1.151452,0.00002520
1.152452,0.00005541
1.153452,0.00002907
1.154452,0.00002581
1.155452,0.00001673
1.156452,0.00002876
1.157452,0.00008441
1.158452,0.00000222
1.159452,-0.00000314
1.160452,-0.00002086
1.161452,0.00004336
1.162452,0.00004640
1.163452,0.00001194
1.164452,0.00005685
1.096886,-0.00000285
1.097886,0.00002722
1.098886,0.00005620
1.099886,-0.00001118
1.100886,0.00000796
1.101886,0.00000329
1.102886,-0.00000501
1.103886,0.00002497
1.104886,0.00000811
1.105886,0.00000582
1.106886,0.00000579
1.107886,-0.00000516
1.108886,0.00004332
1.109886,0.00000628
1.110886,-0.00003374
1.111886,0.00002213
1.112886,0.00000331
1.113886,-0.00000384
1.114886,0.00005408
1.115886,-0.00003976
1.116886,-0.00000396
1.117886,-0.00002515
1.118886,-0.00001168
1.119886,0.00000101
1.120886,0.00003864
1.121886,-0.00000874
1.122886,-0.00004475
1.123886,0.00001612
1.124886,-0.00006552
1.125886,0.00002693
1.126886,-0.00000793
1.127886,-0.00000554
1.128886,-0.00001444
1.129886,-0.00004511
1.130886,0.00001792
1.131886,-0.00001564
1.132886,0.00003013
1.133886,0.00001233
1.134886,0.00003206
1.135886,0.00000445
1.136886,-0.00000792
1.137886,-0.00003625
1.138886,-0.00000327
1.139886,0.00001841
1.140886,0.00001011
1.141886,-0.00002686
1.142886,0.00000855
1.143886,0.00000723
1.144886,-0.00000211
1.145886,0.00000435
1.146886,0.00005556
1.147886,0.00005050
1.148886,-0.00000454
1.149886,0.00001192
1.150886,-0.00005569
1.151886,0.00004634
1.152886,0.00000614
1.153886,-0.00001127
1.154886,-0.00003155
1.155886,-0.00001473
1.156886,0.00003722
1.157886,0.00005233
1.158886,0.00000967
1.159886,-0.00001730
1.160886,-0.00001601
1.161886,0.00002580
1.162886,0.00000295
1.163886,-0.00000719
1.164886,0.00004963
1.165886,-0.00002181
1.166886,0.00002261
1.167886,0.00001951
1.168886,0.00002106
1.169886,0.00003321
1.170886,-0.00002705
1.171886,-0.00002368
1.172886,0.00001727
1.173886,0.00000551
1.174886,-0.00000034
1.175886,-0.00001725
1.176886,-0.00000877
1.177886,0.00003149
1.178886,0.00005797
1.179886,0.00000679
1.180886,0.00000579
1.181886,0.00001054
1.182886,0.00004541
1.183886,0.00002922
1.184886,0.00000519
1.185886,0.00000585
1.186886,0.00000547
1.187886,-0.00003612
1.188886,-0.00000769
1.189886,-0.00002990
1.190886,0.00003193
1.191886,0.00001728
1.192886,0.00001506
1.193886,0.00000162
1.194886,0.00000854
1.195886,-0.00001725
1.129915,-0.00004352
1.130915,-0.00002788
1.131915,0.00002135
1.132915,-0.00001304
1.133915,0.00001206
1.134915,0.00002854
1.135915,0.00001666
1.136915,0.00000316
1.137915,-0.00001705
1.138915,0.00000414
1.139915,-0.00000928
1.140915,0.00004380
1.141915,-0.00004057
1.142915,0.00001405
1.143915,-0.00004184
1.144915,0.00002340
1.145915,-0.00006146
1.146915,-0.00002790
1.147915,-0.00004035
1.148915,0.00005672
1.149915,0.00003519
1.150915,0.00003802
1.151915,-0.00000888
1.152915,0.00006896
1.153915,0.00000701
1.154915,-0.00003262
1.155915,-0.00002054
1.156915,0.00004283
1.157915,0.00003202
1.158915,-0.00000951
1.159915,-0.00000615
1.160915,-0.00001703
1.161915,-0.00002325
1.162915,0.00001644
1.163915,-0.00001568
1.164915,-0.00003034
1.165915,0.00000643
1.166915,-0.00001506
1.167915,0.00002182
1.168915,-0.00000075
1.169915,0.00008589
1.170915,-0.00006071
1.171915,0.00000081
1.172915,-0.00001968
1.173915,0.00003899
1.174915,0.00003159
1.175915,0.00005711
1.176915,0.00010281
1.177915,0.00008706
1.178915,0.00001778
1.179915,0.00016329
1.180915,0.00017762
1.181915,0.00020385
1.182915,0.00027490
1.183915,0.00033080
1.184915,0.00038807
1.185915,0.00048365
1.186915,0.00060799
1.187915,0.00069188
1.188915,0.00075681
1.189915,0.00081809
1.190915,0.00095360
1.191915,0.00097965
1.192915,0.00105213
1.193915,0.00109632
1.194915,0.00116840
1.195915,0.00123701
1.196915,0.00114590
1.197915,0.00117696
1.198915,0.00116146
1.199915,0.00105934
1.200915,0.00098270
1.201915,0.00092766
1.202915,0.00084170
1.203915,0.00071346
1.204915,0.00064248
1.205915,0.00054493
1.206915,0.00040462
1.207915,0.00035909
1.208915,0.00021596
1.209915,0.00011824
1.210915,-0.00001389
1.211915,0.00004507
1.212915,-0.00006112
1.213915,-0.00010847
1.214915,-0.00012317
1.215915,-0.00021843
1.216915,-0.00015196
1.217915,-0.00018282
1.218915,-0.00028417
1.219915,-0.00031625
1.220915,-0.00028097
1.221915,-0.00025960
1.222915,-0.00025784
1.223915,-0.00025809
1.224915,-0.00024821
1.225915,-0.00021673
1.226915,-0.00014304
1.227915,-0.00021774
1.228915,-0.00020225
1.163453,-0.00023269
1.164453,-0.00018916
1.165453,-0.00012259
1.166453,-0.00015951
1.167453,-0.00011325
1.168453,-0.00009285
1.169453,-0.00009232
1.170453,-0.00003465
1.171453,-0.00001590
1.172453,-0.00003126
1.173453,0.00000130
1.174453,-0.00000844
1.175453,0.00000398
1.176453,0.00003316
1.177453,-0.00000346
1.178453,0.00005233
1.179453,-0.00002581
1.180453,0.00000704
1.181453,0.00001198
1.182453,0.00005326
1.183453,0.00003502
1.184453,0.00005401
1.185453,0.00006396
1.186453,0.00007909
1.187453,0.00002170
1.188453,0.00004171
1.189453,0.00007437
1.190453,0.00006173
1.191453,0.00006688
1.192453,0.00002787
1.193453,0.00005370
1.194453,0.00012824
1.195453,0.00006751
1.196453,0.00005010
1.197453,0.00001994
1.198453,0.00006080
1.199453,0.00006585
1.200453,0.00005860
1.201453,-0.00003547
1.202453,0.00013186
1.203453,0.00010548
1.204453,0.00006973
1.205453,0.00007238
1.206453,0.00009592
1.207453,0.00009041
1.208453,0.00007594
1.209453,0.00011707
1.210453,0.00009905
1.211453,0.00010146
1.212453,0.00007484
1.213453,0.00010473
1.214453,0.00013855
1.215453,0.00014429
1.216453,0.00013856
1.217453,0.00014134
1.218453,0.00012302
1.219453,0.00010725
1.220453,0.00011772
1.221453,0.00012520
1.222453,0.00013878
1.223453,0.00012476
1.224453,0.00012739
1.225453,0.00011696
1.226453,0.00010764
1.227453,0.00014347
1.228453,0.00018869
1.229453,0.00013658
1.230453,0.00013268
1.231453,0.00009687
1.232453,0.00017254
1.233453,0.00017623
1.234453,0.00020987
1.235453,0.00018425
1.236453,0.00022055
1.237453,0.00014073
1.238453,0.00018815
1.239453,0.00014390
1.240453,0.00016967
1.241453,0.00010064
1.242453,0.00017306
1.243453,0.00022427
1.244453,0.00023432
1.245453,0.00019931
1.246453,0.00024313
1.247453,0.00020648
1.248453,0.00019834
1.249453,0.00020058
1.250453,0.00023915
1.251453,0.00020948
1.252453,0.00015458
1.253453,0.00018345
1.254453,0.00021632
1.255453,0.00024057
1.256453,0.00013377
1.257453,0.00019003
1.258453,0.00024493
1.259453,0.00018907
1.260453,0.00019623
1.261453,0.00020444
1.262453,0.00019748
1.185163,0.00027363
1.186163,0.00026490
1.187163,0.00021098
1.188163,0.00018558
1.189163,0.00021971
1.190163,0.00026321
1.191163,0.00019211
1.192163,0.00019608
1.193163,0.00018926
1.194163,0.00021193
1.195163,0.00023924
1.196163,0.00030248
1.197163,0.00014720
1.198163,0.00019725
1.199163,0.00024674
1.200163,0.00021014
1.201163,0.00012016
1.202163,0.00018157
1.203163,0.00018274
1.204163,0.00023434
1.205163,0.00024490
1.206163,0.00016127
1.207163,0.00021343
1.208163,0.00022468
1.209163,0.00020040
1.210163,0.00017023
1.211163,0.00020112
1.212163,0.00020862
1.213163,0.00018251
1.214163,0.00016645
1.215163,0.00017120
1.216163,0.00018641
1.217163,0.00014566
1.218163,0.00016351
1.219163,0.00016062
1.220163,0.00018432
1.221163,0.00016260
1.222163,0.00014257
1.223163,0.00012233
1.224163,0.00011931
1.225163,0.00013835
1.226163,0.00010128
1.227163,0.00019734
1.228163,0.00012982
1.229163,0.00012634
1.230163,0.00015901
1.231163,0.00010376
1.232163,0.00009045
1.233163,0.00012577
1.234163,0.00009348
1.235163,0.00009171
1.236163,0.00015030
1.237163,0.00010484
1.238163,0.00009904
1.239163,0.00014749
1.240163,0.00008859
1.241163,0.00009957
1.242163,0.00005268
1.243163,0.00008124
1.244163,0.00009227
1.245163,0.00009670
1.246163,0.00001532
1.247163,0.00004008
1.248163,0.00004587
1.249163,0.00005497
1.250163,0.00007870
1.251163,0.00005676
1.252163,0.00002847
1.253163,0.00004212
1.254163,0.00009805
1.255163,0.00005584
1.256163,0.00007725
1.257163,0.00003065
1.258163,0.00003299
1.259163,0.00004433
1.260163,0.00001328
1.261163,0.00002547
1.262163,0.00005194
1.263163,0.00005386
1.264163,-0.00001952
1.265163,0.00005950
1.266163,0.00002348
1.267163,0.00002462
1.268163,0.00003503
1.269163,-0.00000605
1.270163,0.00003770
1.271163,0.00001567
1.272163,0.00003332
1.273163,-0.00001979
1.274163,0.00001342
1.275163,0.00003006
1.276163,0.00002068
1.277163,0.00002123
1.278163,0.00004346
1.279163,-0.00004644
1.280163,0.00006193
1.281163,0.00003994
1.282163,0.00001093
1.283163,0.00007731
1.284163,0.00001897
1.216665,-0.00003367
1.217665,0.00000672
1.218665,0.00002593
1.219665,-0.00002312
1.220665,0.00000253
1.221665,0.00000994
1.222665,0.00006840
1.223665,0.00003249
1.224665,0.00001351
1.225665,-0.00001107
1.226665,-0.00001599
1.227665,0.00001166
1.228665,0.00003226
1.229665,-0.00003053
1.230665,0.00004168
1.231665,0.00003110
1.232665,-0.00001437
1.233665,0.00000353
1.234665,0.00000942
1.235665,0.00003742
1.236665,0.00003384
1.237665,0.00006223
1.238665,0.00001472
1.239665,-0.00002789
1.240665,0.00000007
1.241665,-0.00002819
1.242665,0.00004313
1.243665,-0.00001094
1.244665,-0.00003608
1.245665,0.00002070
1.246665,-0.00000443
1.247665,-0.00002075
1.248665,-0.00005223
1.249665,-0.00002586
1.250665,-0.00000416
1.251665,0.00002413
1.252665,0.00002002
1.253665,0.00003305
1.254665,-0.00004366
1.255665,-0.00001894
1.256665,-0.00001997
1.257665,-0.00000172
1.258665,0.00003657
1.259665,-0.00004090
1.260665,0.00001306
1.261665,-0.00002006
1.262665,0.00001346
1.263665,0.00000481
1.264665,-0.00001404
1.265665,-0.00000158
1.266665,0.00001455
1.267665,-0.00004649
1.268665,-0.00001480
1.269665,0.00000145
1.270665,0.00002626
1.271665,-0.00003106
1.272665,-0.00001662
1.273665,0.00002019
1.274665,0.00002096
1.275665,0.00003293
1.276665,0.00000106
1.277665,0.00001234
1.278665,0.00000240
1.279665,0.00003128
1.280665,0.00002105
1.281665,0.00000579
1.282665,-0.00001618
1.283665,0.00000434
1.284665,-0.00004061
1.285665,-0.00000895
1.286665,0.00004090
1.287665,0.00001312
1.288665,-0.00002256
1.289665,-0.00002499
1.290665,0.00005271
1.291665,-0.00003558
1.292665,-0.00001884
1.293665,-0.00001601
1.294665,-0.00002272
1.295665,-0.00002896
1.296665,-0.00002798
1.297665,-0.00002614
1.298665,0.00001319
1.299665,0.00004799
1.300665,0.00000811
1.301665,0.00004493
1.302665,0.00003873
1.303665,0.00003968
1.304665,0.00001849
1.305665,0.00000757
1.306665,0.00004534
1.307665,-0.00002987
1.308665,-0.00002479
1.309665,0.00002380
1.310665,-0.00002931
1.311665,0.00005165
1.312665,-0.00005585
1.313665,0.00004812
1.314665,-0.00001330
1.315665,-0.00003645
1.251856,-0.00002107
1.252856,-0.00003494
1.253856,-0.00005556
1.254856,-0.00000517
1.255856,0.00000525
1.256856,0.00001067
1.257856,-0.00003399
1.258856,-0.00001803
1.259856,-0.00001346
1.260856,-0.00000045
1.261856,0.00002690
1.262856,0.00002398
1.263856,0.00002787
1.264856,0.00002293
1.265856,-0.00000139
1.266856,-0.00002944
1.267856,0.00000280
1.268856,0.00000971
1.269856,0.00004129
1.270856,0.00000275
1.271856,-0.00002302
1.272856,0.00000133
1.273856,-0.00003489
1.274856,-0.00004353
1.275856,0.00000333
1.276856,0.00001583
1.277856,-0.00002993
1.278856,0.00002370
1.279856,-0.00001250
1.280856,-0.00002573
1.281856,0.00000807
1.282856,-0.00000323
1.283856,0.00002262
1.284856,-0.00000596
1.285856,0.00001946
1.286856,0.00001045
1.287856,-0.00001082
1.288856,0.00000275
1.289856,0.00002954
1.290856,0.00002511
1.291856,0.00004415
1.292856,0.00004625
1.293856,0.00001082
1.294856,-0.00001490
1.295856,0.00003473
1.296856,-0.00002906
1.297856,-0.00000986
1.298856,0.00004719
1.299856,-0.00003714
1.300856,0.00005317
1.301856,-0.00002374
1.302856,0.00000976
1.303856,-0.00003140
1.304856,0.00001542
1.305856,0.00004370
1.306856,-0.00007476
1.307856,-0.00000028
1.308856,0.00001942
1.309856,0.00000879
1.310856,-0.00006833
1.311856,-0.00002431
1.312856,-0.00003320
1.313856,0.00004654
1.314856,0.00002811
1.315856,0.00004605
1.316856,-0.00000641
1.317856,0.00001507
1.318856,0.00004398
1.319856,0.00004434
1.320856,0.00004203
1.321856,-0.00003286
1.322856,0.00000567
1.323856,0.00001807
1.324856,-0.00001261
1.325856,0.00002180
1.326856,-0.00003202
1.327856,-0.00000309
1.328856,-0.00003645
1.329856,0.00000156
1.330856,-0.00001923
1.331856,-0.00005746
1.332856,-0.00001918
1.333856,0.00004894
1.334856,-0.00010208
1.335856,-0.00000098
1.336856,-0.00006161
1.337856,-0.00000076
1.338856,-0.00003479
1.339856,0.00001171
1.340856,-0.00000385
1.341856,-0.00002240
1.342856,0.00002785
1.343856,-0.00001122
1.344856,0.00001873
1.345856,0.00002427
1.346856,-0.00003429
1.347856,0.00001395
1.348856,-0.00000264
1.349856,0.00002176
1.350856,0.00003285
1.283121,0.00000037
1.284121,-0.00001038
1.285121,-0.00007230
1.286121,-0.00002730
1.287121,-0.00001109
1.288121,0.00001006
1.289121,0.00002537
1.290121,-0.00001513
1.291121,-0.00002039
1.292121,0.00005078
1.293121,-0.00001568
1.294121,0.00003245
1.295121,-0.00003559
1.296121,-0.00005010
1.297121,-0.00002544
1.298121,0.00001475
1.299121,-0.00002974
1.300121,-0.00001694
1.301121,-0.00000928
1.302121,-0.00001799
1.303121,-0.00002630
1.304121,-0.00000005
1.305121,-0.00005398
1.306121,0.00001074
1.307121,0.00000800
1.308121,0.00000477
1.309121,0.00001505
1.310121,-0.00000193
1.311121,0.00000892
1.312121,0.00002455
1.313121,0.00001548
1.314121,-0.00002013
1.315121,-0.00001695
1.316121,0.00001168
1.317121,0.00005050
1.318121,-0.00001189
1.319121,0.00001634
1.320121,0.00001399
1.321121,-0.00003757
1.322121,0.00000414
1.323121,-0.00008419
1.324121,0.00002547
1.325121,-0.00000907
1.326121,-0.00000035
1.327121,-0.00003091
1.328121,-0.00002553
1.329121,-0.00002316
1.330121,-0.00000722
1.331121,-0.00003496
1.332121,-0.00001475
1.333121,-0.00001460
1.334121,0.00001809
1.335121,-0.00000820
1.336121,0.00003565
1.337121,0.00000342
1.338121,0.00000836
1.339121,0.00007395
1.340121,-0.00005930
1.341121,0.00001605
1.342121,0.00002328
1.343121,0.00001356
1.344121,0.00002613
1.345121,-0.00000273
1.346121,0.00000995
1.347121,0.00001888
1.348121,0.00004439
1.349121,-0.00003594
1.350121,0.00002127
1.351121,0.00002141
1.352121,0.00002477
1.353121,0.00001073
1.354121,-0.00000852
1.355121,0.00000197
1.356121,-0.00002665
1.357121,-0.00002988
1.358121,-0.00000830
1.359121,0.00001993
1.360121,0.00000806
1.361121,0.00000994
1.362121,-0.00001428
1.363121,-0.00001503
1.364121,0.00001903
1.365121,-0.00002897
1.366121,-0.00001458
1.367121,0.00001169
1.368121,-0.00004949
1.369121,0.00004443
1.370121,-0.00000314
1.371121,-0.00005485
1.372121,0.00001593
1.373121,0.00002774
1.374121,0.00002944
1.375121,-0.00000899
1.376121,-0.00001372
1.377121,0.00005201
1.378121,-0.00001008
1.379121,0.00000085
1.380121,0.00004186
1.381121,0.00001058
1.382121,0.00001632
1.312486,-0.00001414
1.313486,0.00000694
1.314486,-0.00002447
1.315486,0.00005016
1.316486,0.00003132
1.317486,0.00000423
1.318486,-0.00006576
1.319486,-0.00001358
1.320486,-0.00000805
1.321486,0.00005268
1.322486,-0.00003381
1.323486,0.00001057
1.324486,-0.00001555
1.325486,-0.00000048
1.326486,-0.00000788
1.327486,0.00000869
1.328486,-0.00006756
1.329486,-0.00002377
1.330486,0.00003817
1.331486,0.00000577
1.332486,0.00004130
1.333486,0.00000379
1.334486,-0.00000757
1.335486,0.00001222
1.336486,0.00003421
1.337486,0.00004573
1.338486,0.00002643
1.339486,0.00004718
1.340486,0.00002698
1.341486,0.00000179
1.342486,0.00000188
1.343486,-0.00003559
1.344486,0.00000662
1.345486,0.00002731
1.346486,0.00002942
1.347486,0.00006277
1.348486,0.00003581
1.349486,0.00001579
1.350486,0.00004458
1.351486,0.00003033
1.352486,0.00005806
1.353486,0.00004914
1.354486,0.00007828
1.355486,0.00001614
1.356486,0.00003727
1.357486,-0.00000200
1.358486,0.00002130
1.359486,0.00010542
1.360486,0.00005018
1.361486,0.00007387
1.362486,0.00002310
1.363486,0.00006574
1.364486,0.00007424
1.365486,0.00005255
1.366486,0.00011175
1.367486,0.00007455
1.368486,0.00005068
1.369486,0.00005191
1.370486,0.00008542
1.371486,0.00004120
1.372486,0.00013564
1.373486,0.00004316
1.374486,0.00002072
1.375486,0.00008502
1.376486,0.00002219
1.377486,0.00005276
1.378486,0.00000730
1.379486,0.00012725
1.380486,0.00011656
1.381486,0.00006857
1.382486,0.00005588
1.383486,0.00003040
1.384486,0.00009674
1.385486,0.00008392
1.386486,0.00002676
1.387486,0.00004989
1.388486,0.00005325
1.389486,0.00004182
1.390486,0.00010402
1.391486,0.00013459
1.392486,0.00008873
1.393486,0.00008750
1.394486,0.00011132
1.395486,0.00005876
1.396486,0.00005156
1.397486,0.00008192
1.398486,0.00008179
1.399486,0.00005668
1.400486,0.00012523
1.401486,0.00008539
1.402486,0.00008981
1.403486,0.00003353
1.404486,0.00003845
1.405486,0.00012202
1.406486,0.00004309
1.407486,0.00003898
1.408486,0.00013540
1.409486,0.00004456
1.410486,0.00005886
1.411486,0.00010881
1.345629,0.00010027
1.346629,0.00012113
1.347629,0.00006473
1.348629,0.00006362
1.349629,0.00005061
1.350629,0.00010710
1.351629,0.00007318
1.352629,0.00004938
1.353629,0.00005687
1.354629,0.00007345
1.355629,0.00005926
1.356629,0.00006757
1.357629,0.00006645
1.358629,0.00005363
1.359629,0.00007198
1.360629,0.00007065
1.361629,0.00010782
1.362629,-0.00000784
1.363629,-0.00000991
1.364629,0.00002877
1.365629,0.00000542
1.366629,0.00002892
1.367629,-0.00000096
1.368629,0.00007441
1.369629,0.00003569
1.370629,0.00001208
1.371629,0.00003846
1.372629,-0.00008495
1.373629,0.00006554
1.374629,0.00001197
1.375629,0.00003313
1.376629,0.00006195
1.377629,0.00004030
1.378629,-0.00001910
1.379629,0.00003638
1.380629,0.00000883
1.381629,0.00004699
1.382629,0.00002594
1.383629,-0.00000552
1.384629,0.00005275
1.385629,0.00000829
1.386629,0.00000760
1.387629,0.00000345
1.388629,-0.00003190
1.389629,0.00002189
1.390629,-0.00000739
1.391629,0.00000634
1.392629,0.00001717
1.393629,0.00001870
1.394629,0.00000088
1.395629,0.00003418
1.396629,0.00000121
1.397629,0.00004101
1.398629,0.00001836
1.399629,0.00004793
1.400629,-0.00000339
1.401629,0.00003387
1.402629,0.00004703
1.403629,-0.00000407
1.404629,0.00002502
1.405629,0.00000093
1.406629,-0.00000568
1.407629,0.00004117
1.408629,0.00000815
1.409629,-0.00004057
1.410629,-0.00001741
1.411629,-0.00001923
1.412629,-0.00004417
1.413629,0.00000681
1.414629,-0.00000689
1.415629,-0.00000185
1.416629,0.00002256
1.417629,-0.00002694
1.418629,0.00001442
1.419629,0.00001604
1.420629,-0.00001704
1.421629,-0.00003065
1.422629,0.00000541
1.423629,-0.00001608
1.424629,-0.00002195
1.425629,0.00001684
1.426629,-0.00003430
1.427629,-0.00000202
1.428629,0.00004258
1.429629,0.00002438
1.430629,0.00004123
1.431629,-0.00002055
1.432629,0.00004157
1.433629,0.00001489
1.434629,0.00003091
1.435629,0.00001922
1.436629,0.00000153
1.437629,0.00001077
1.438629,-0.00003869
1.439629,-0.00002533
1.440629,0.00001862
1.441629,0.00000330
1.442629,-0.00000025
1.443629,-0.00000906
1.444629,0.00002281
1.380704,0.00001557
1.381704,0.00002197
1.382704,0.00003227
1.383704,-0.00001203
1.384704,0.00007231
1.385704,0.00005008
1.386704,-0.00007312
1.387704,-0.00003065
1.388704,0.00000358
1.389704,0.00001253
1.390704,-0.00004970
1.391704,0.00003879
1.392704,-0.00002839
1.393704,0.00008360
1.394704,0.00002765
1.395704,-0.00006468
1.396704,0.00000170
1.397704,-0.00003678
1.398704,0.00003034
1.399704,0.00002121
1.400704,0.00003222
1.401704,0.00005646
1.402704,0.00002214
1.403704,-0.00003257
1.404704,0.00003980
1.405704,-0.00000610
1.406704,0.00001610
1.407704,0.00002883
1.408704,0.00001494
1.409704,0.00000621
1.410704,-0.00001995
1.411704,0.00002974
1.412704,-0.00003052
1.413704,-0.00000950
1.414704,0.00001556
1.415704,0.00002824
1.416704,0.00004866
1.417704,0.00000570
1.418704,0.00001287
1.419704,0.00001458
1.420704,-0.00000206
1.421704,0.00004191
1.422704,0.00002651
1.423704,0.00001525
1.424704,-0.00000874
1.425704,0.00005454
1.426704,-0.00001113
1.427704,0.00001569
1.428704,-0.00001787
1.429704,-0.00000095
1.430704,-0.00007005
1.431704,0.00001752
1.432704,0.00000437
1.433704,-0.00000058
1.434704,0.00001951
1.435704,0.00000922
1.436704,-0.00004944
1.437704,0.00000546
1.438704,0.00002714
1.439704,-0.00001453
1.440704,0.00004632
1.441704,-0.00000389
1.442704,0.00000820
1.443704,0.00003337
1.444704,0.00004190
1.445704,-0.00000885
1.446704,0.00001136
1.447704,0.00003043
1.448704,-0.00001140
1.449704,0.00004597
1.450704,-0.00001742
1.451704,0.00000035
1.452704,-0.00003388
1.453704,-0.00000933
1.454704,0.00003289
1.455704,-0.00000778
1.456704,0.00002210
1.457704,0.00001734
1.458704,0.00007702
1.459704,0.00004279
1.460704,0.00007173
1.461704,0.00009230
1.462704,0.00009046
1.463704,0.00008752
1.464704,0.00014712
1.465704,0.00019090
1.466704,0.00020391
1.467704,0.00030105
1.468704,0.00039632
1.469704,0.00048216
1.470704,0.00056772
1.471704,0.00062618
1.472704,0.00068984
1.473704,0.00083077
1.474704,0.00086623
1.475704,0.00100559
1.476704,0.00100605
1.477704,0.00110869
1.478704,0.00112933
1.479704,0.00121459
1.412202,0.00117262
1.413202,0.00116782
1.414202,0.00117313
1.415202,0.00108705
1.416202,0.00103858
1.417202,0.00091061
1.418202,0.00084331
1.419202,0.00073679
1.420202,0.00067726
1.421202,0.00053219
1.422202,0.00043529
1.423202,0.00036468
1.424202,0.00025323
1.425202,0.00015664
1.426202,0.00007533
1.427202,-0.00000155
1.428202,-0.00004894
1.429202,-0.00009564
1.430202,-0.00010159
1.431202,-0.00018868
1.432202,-0.00018277
1.433202,-0.00024094
1.434202,-0.00025347
1.435202,-0.00021291
1.436202,-0.00023953
1.437202,-0.00023404
1.438202,-0.00024115
1.439202,-0.00029569
1.440202,-0.00023825
1.441202,-0.00015823
1.442202,-0.00029404
1.443202,-0.00023342
1.444202,-0.00026749
1.445202,-0.00019478
1.446202,-0.00023614
1.447202,-0.00014072
1.448202,-0.00014447
1.449202,-0.00014784
1.450202,-0.00008677
1.451202,-0.00014712
1.452202,-0.00006396
1.453202,-0.00009325
1.454202,-0.00001372
1.455202,0.00000317
1.456202,-0.00005792
1.457202,-0.00001257
1.458202,0.00003223
1.459202,0.00006160
1.460202,0.00000200
1.461202,0.00002301
1.462202,0.00003870
1.463202,0.00003975
1.464202,0.00001582
1.465202,0.00002038
1.466202,0.00002424
1.467202,0.00002189
1.468202,0.00001868
1.469202,-0.00000957
1.470202,0.00005405
1.471202,0.00004477
1.472202,0.00005602
1.473202,0.00011098
1.474202,0.00007911
1.475202,0.00003031
1.476202,0.00009018
1.477202,0.00006767
1.478202,0.00005464
1.479202,0.00004812
1.480202,0.00005574
1.481202,0.00005702
1.482202,0.00011741
1.483202,0.00006804
1.484202,0.00012225
1.485202,0.00009170
1.486202,0.00011415
1.487202,0.00007133
1.488202,0.00006488
1.489202,0.00003701
1.490202,0.00011316
1.491202,0.00003561
1.492202,0.00010036
1.493202,0.00005877
1.494202,0.00005038
1.495202,0.00013040
1.496202,0.00010441
1.497202,0.00002609
1.498202,0.00011693
1.499202,0.00009655
1.500202,0.00012390
1.501202,0.00008041
1.502202,0.00010525
1.503202,0.00012336
1.504202,0.00012130
1.505202,0.00015536
1.506202,0.00012021
1.507202,0.00021034
1.508202,0.00018328
1.509202,0.00014166
1.510202,0.00016316
1.511202,0.00018082
1.443976,0.00020611
1.444976,0.00017904
1.445976,0.00019672
1.446976,0.00024060
1.447976,0.00020008
1.448976,0.00015851
1.449976,0.00018313
1.450976,0.00020132
1.451976,0.00014020
1.452976,0.00018237
1.453976,0.00013207
1.454976,0.00021058
1.455976,0.00019056
1.456976,0.00020327
1.457976,0.00018354
1.458976,0.00018813
1.459976,0.00026260
1.460976,0.00021239
1.461976,0.00024684
1.462976,0.00017945
1.463976,0.00023755
1.464976,0.00018257
1.465976,0.00010203
1.466976,0.00017164
1.467976,0.00021569
1.468976,0.00021150
1.469976,0.00023702
1.470976,0.00023741
1.471976,0.00028779
1.472976,0.00024473
1.473976,0.00026162
1.474976,0.00022103
1.475976,0.00023080
1.476976,0.00015943
1.477976,0.00023655
1.478976,0.00019931
1.479976,0.00020929
1.480976,0.00021107
1.481976,0.00023151
1.482976,0.00021254
1.483976,0.00025186
1.484976,0.00027221
1.485976,0.00019278
1.486976,0.00020472
1.487976,0.00018375
1.488976,0.00018428
1.489976,0.00021819
1.490976,0.00013272
1.491976,0.00020382
1.492976,0.00018841
1.493976,0.00018971
1.494976,0.00017402
1.495976,0.00019641
1.496976,0.00018353
1.497976,0.00019056
1.498976,0.00019072
1.499976,0.00018256
1.500976,0.00023581
1.501976,0.00018388
1.502976,0.00020879
1.503976,0.00021617
1.504976,0.00018657
1.505976,0.00016703
1.506976,0.00016574
1.507976,0.00014273
1.508976,0.00013799
1.509976,0.00021961
1.510976,0.00012314
1.511976,0.00017265
1.512976,0.00018030
1.513976,0.00015315
1.514976,0.00015725
1.515976,0.00010478
1.516976,0.00014232
1.517976,0.00016372
1.518976,0.00011787
1.519976,0.00015575
1.520976,0.00010148
1.521976,0.00020109
1.522976,0.00016635
1.523976,0.00013598
1.524976,0.00008891
1.525976,0.00011357
1.526976,0.00011371
1.527976,0.00009985
1.528976,0.00010996
1.529976,0.00010226
1.530976,0.00014873
1.531976,0.00005342
1.532976,0.00004286
1.533976,0.00004089
1.534976,0.00004310
1.535976,0.00004104
1.536976,0.00011482
1.537976,0.00008019
1.538976,0.00004213
1.539976,0.00005073
1.540976,0.00004484
1.541976,0.00007120
1.542976,0.00009528
1.475496,0.00008046
1.476496,0.00010582
1.477496,0.00004986
1.478496,0.00010626
1.479496,0.00003335
1.480496,0.00001540
1.481496,0.00000469
1.482496,0.00005254
1.483496,0.00001768
1.484496,0.00001469
1.485496,0.00003125
1.486496,0.00004993
1.487496,0.00005646
1.488496,0.00005616
1.489496,0.00004918
1.490496,0.00005322
1.491496,0.00000610
1.492496,-0.00001446
1.493496,0.00002508
1.494496,0.00002144
1.495496,0.00002767
1.496496,-0.00000962
1.497496,-0.00001048
1.498496,0.00003366
1.499496,0.00008520
1.500496,0.00002014
1.501496,0.00004723
1.502496,-0.00001753
1.503496,0.00002829
1.504496,0.00003319
1.505496,0.00002136
1.506496,0.00002480
1.507496,0.00000269
1.508496,0.00001131
1.509496,0.00003246
1.510496,0.00000675
1.511496,0.00003091
1.512496,-0.00001216
1.513496,0.00001410
1.514496,0.00003372
1.515496,0.00004212
1.516496,0.00000574
1.517496,0.00001360
1.518496,0.00003971
1.519496,0.00001498
1.520496,0.00002232
1.521496,0.00000765
1.522496,0.00001582
1.523496,-0.00003031
1.524496,-0.00002428
1.525496,-0.00000974
1.526496,-0.00002926
1.527496,-0.00003039
1.528496,-0.00000265
1.529496,-0.00003637
1.530496,0.00000911
1.531496,0.00001454
1.532496,-0.00004058
1.533496,0.00001774
1.534496,0.00002867
1.535496,-0.00001698
1.536496,-0.00004354
1.537496,-0.00002710
1.538496,-0.00002383
1.539496,0.00006160
1.540496,-0.00003292
1.541496,-0.00000369
1.542496,0.00001168
1.543496,0.00003761
1.544496,-0.00000619
1.545496,-0.00002442
1.546496,-0.00001856
1.547496,0.00001369
1.548496,-0.00001124
1.549496,0.00001951
1.550496,-0.00002469
1.551496,0.00001899
1.552496,-0.00000305
1.553496,-0.00003553
1.554496,0.00003164
1.555496,-0.00003323
1.556496,0.00000079
1.557496,0.00000914
1.558496,0.00002809
1.559496,0.00001699
1.560496,-0.00000745
1.561496,0.00000942
1.562496,-0.00001848
1.563496,0.00000954
1.564496,0.00002506
1.565496,-0.00000611
1.566496,-0.00002539
1.567496,0.00001133
1.568496,-0.00002992
1.569496,-0.00001121
1.570496,-0.00001411
1.571496,-0.00002133
1.572496,0.00005852
1.573496,0.00001005
1.574496,-0.00002690
1.507116,-0.00002692
1.508116,-0.00002395
1.509116,-0.00004731
1.510116,0.00003292
1.511116,0.00007019
1.512116,-0.00004767
1.513116,-0.00000359
1.514116,0.00002037
1.515116,0.00002831
1.516116,-0.00004544
1.517116,0.00000770
1.518116,0.00004052
1.519116,0.00001220
1.520116,0.00000909
1.521116,0.00002064
1.522116,-0.00000823
1.523116,-0.00003554
1.524116,0.00000127
1.525116,-0.00001530
1.526116,0.00001306
1.527116,-0.00002007
1.528116,0.00000364
1.529116,-0.00003697
1.530116,0.00001323
1.531116,0.00003117
1.532116,-0.00001605
1.533116,0.00000603
1.534116,-0.00002610
1.535116,0.00004331
1.536116,0.00002472
1.537116,-0.00001862
1.538116,0.00001821
1.539116,0.00001952
1.540116,0.00000843
1.541116,-0.00001412
1.542116,-0.00000295
1.543116,0.00007314
1.544116,-0.00002081
1.545116,0.00001873
1.546116,0.00002788
1.547116,0.00004506
1.548116,-0.00004373
1.549116,-0.00002553
1.550116,-0.00002577
1.551116,0.00003127
1.552116,0.00003470
1.553116,-0.00000368
1.554116,0.00000533
1.555116,-0.00001882
1.556116,0.00001563
1.557116,-0.00001621
1.558116,0.00002283
1.559116,0.00005758
1.560116,-0.00000904
1.561116,-0.00004595
1.562116,0.00000875
1.563116,0.00001328
1.564116,0.00002288
1.565116,0.00000993
1.566116,0.00002434
1.567116,-0.00000458
1.568116,-0.00000435
1.569116,-0.00001226
1.570116,0.00000174
1.571116,-0.00003187
1.572116,-0.00001926
1.573116,0.00000880
1.574116,0.00000511
1.575116,-0.00002360
1.576116,0.00000474
1.577116,-0.00000741
1.578116,-0.00000690
1.579116,0.00002144
1.580116,0.00002083
1.581116,-0.00003041
1.582116,0.00000083
1.583116,0.00003331
1.584116,-0.00005675
1.585116,-0.00003414
1.586116,-0.00001300
1.587116,0.00005135
1.588116,0.00003972
1.589116,0.00002857
1.590116,-0.00001411
1.591116,-0.00000299
1.592116,0.00002184
1.593116,-0.00000807
1.594116,-0.00005217
1.595116,0.00001659
1.596116,0.00000667
1.597116,-0.00000632
1.598116,-0.00004221
1.599116,0.00000713
1.600116,0.00002113
1.601116,-0.00003321
1.602116,0.00004354
1.603116,-0.00003682
1.604116,-0.00002561
1.605116,-0.00002266
1.606116,-0.00000560
1.539053,0.00000020
1.540053,0.00001679
1.541053,-0.00001663
1.542053,-0.00001521
1.543053,-0.00002474
1.544053,0.00001559
1.545053,0.00001122
1.546053,0.00001675
1.547053,0.00001412
1.548053,0.00000021
1.549053,0.00003510
1.550053,0.00002660
1.551053,0.00001752
1.552053,-0.00001469
1.553053,-0.00000438
1.554053,-0.00001406
1.555053,-0.00002422
1.556053,-0.00002654
1.557053,0.00002178
1.558053,-0.00005336
1.559053,0.00004414
1.560053,0.00000602
1.561053,-0.00001630
1.562053,0.00001567
1.563053,0.00003193
1.564053,-0.00001384
1.565053,-0.00001303
1.566053,0.00000541
1.567053,-0.00002666
1.568053,0.00004545
1.569053,0.00002065
1.570053,0.00000092
1.571053,-0.00000470
1.572053,-0.00001274
1.573053,-0.00003348
1.574053,0.00002171
1.575053,-0.00005607
1.576053,0.00004710
1.577053,-0.00000743
1.578053,0.00002611
1.579053,0.00005371
1.580053,0.00000601
1.581053,-0.00001967
1.582053,-0.00003842
1.583053,0.00000278
1.584053,-0.00001109
1.585053,-0.00000392
1.586053,0.00003133
1.587053,-0.00000095
1.588053,0.00002958
1.589053,-0.00005328
1.590053,0.00002345
1.591053,0.00002598
1.592053,0.00001636
1.593053,0.00003887
1.594053,-0.00004046
1.595053,-0.00003597
1.596053,0.00003405
1.597053,-0.00001134
1.598053,0.00000587
1.599053,0.00000265
1.600053,-0.00000976
1.601053,0.00000351
1.602053,0.00002340
1.603053,-0.00003253
1.604053,-0.00001628
1.605053,-0.00003405
1.606053,-0.00002047
1.607053,0.00000727
1.608053,0.00002606
1.609053,-0.00002781
1.610053,0.00001073
1.611053,0.00001707
1.612053,0.00003920
1.613053,0.00004048
1.614053,0.00004218
1.615053,-0.00002079
1.616053,-0.00001433
1.617053,-0.00000510
1.618053,0.00000186
1.619053,0.00001723
1.620053,0.00003126
1.621053,0.00001348
1.622053,-0.00001055
1.623053,0.00006033
1.624053,-0.00003191
1.625053,0.00000396
1.626053,0.00001474
1.627053,-0.00002588
1.628053,0.00002949
1.629053,-0.00006190
1.630053,0.00000997
1.631053,-0.00001669
1.632053,0.00003057
1.633053,0.00002547
1.634053,-0.00000908
1.635053,-0.00000089
1.636053,0.00003869
1.637053,-0.00002280
1.638053,-0.00001536
1.560216,0.00002772
1.561216,-0.00003336
1.562216,0.00004273
1.563216,0.00003867
1.564216,-0.00002738
1.565216,-0.00000711
1.566216,0.00000292
1.567216,-0.00001923
1.568216,0.00000019
1.569216,-0.00001814
1.570216,0.00002528
1.571216,0.00001111
1.572216,0.00000887
1.573216,0.00001119
1.574216,-0.00006379
1.575216,0.00000515
1.576216,-0.00001493
1.577216,0.00003721
1.578216,-0.00002205
1.579216,0.00001563
1.580216,0.00002010
1.581216,-0.00000858
1.582216,-0.00001090
1.583216,0.00002630
1.584216,0.00001262
1.585216,0.00004894
1.586216,0.00002498
1.587216,-0.00001197
1.588216,-0.00000022
1.589216,-0.00002802
1.590216,-0.00000347
1.591216,-0.00001743
1.592216,0.00003883
1.593216,-0.00001668
1.594216,0.00003227
1.595216,-0.00001947
1.596216,0.00005741
1.597216,-0.00000948
1.598216,0.00001345
1.599216,-0.00001484
1.600216,0.00000876
1.601216,-0.00001614
1.602216,-0.00003420
1.603216,-0.00002053
1.604216,0.00002882
1.605216,-0.00001130
1.606216,-0.00004061
1.607216,0.00002559
1.608216,0.00003764
1.609216,0.00003253
1.610216,0.00005685
1.611216,0.00002165
1.612216,0.00002758
1.613216,0.00000414
1.614216,0.00004084
1.615216,0.00001178
1.616216,0.00004900
1.617216,0.00000486
1.618216,0.00001718
1.619216,0.00001901
1.620216,-0.00000669
1.621216,0.00000441
1.622216,-0.00003944
1.623216,0.00003207
1.624216,0.00001865
1.625216,0.00001163
1.626216,0.00003081
1.627216,0.00000149
1.628216,-0.00005700
1.629216,0.00004043
1.630216,0.00002917
1.631216,0.00001822
1.632216,0.00003736
1.633216,0.00001451
1.634216,0.00001348
1.635216,0.00002127
1.636216,0.00006924
1.637216,0.00006882
1.638216,0.00002753
1.639216,0.00007335
1.640216,0.00006692
1.641216,0.00004229
1.642216,0.00002113
1.643216,0.00005190
1.644216,0.00009360
1.645216,0.00006007
1.646216,0.00007851
1.647216,0.00000858
1.648216,0.00002760
1.649216,0.00005475
1.650216,0.00004991
1.651216,0.00001606
1.652216,0.00004946
1.653216,0.00007220
1.654216,0.00005446
1.655216,0.00001960
1.656216,0.00007978
1.657216,0.00007351
1.658216,0.00007090
1.659216,0.00003106
1.595979,0.00009928
1.596979,0.00009871
1.597979,0.00009872
1.598979,0.00009293
1.599979,0.00005420
1.600979,0.00005002
1.601979,0.00007908
1.602979,0.00009678
1.603979,0.00010377
1.604979,0.00005319
1.605979,0.00010452
1.606979,0.00008924
1.607979,0.00005794
1.608979,0.00014292
1.609979,0.00008767
1.610979,0.00008552
1.611979,0.00004580
1.612979,0.00009316
1.613979,0.00013752
1.614979,0.00006743
1.615979,0.00006085
1.616979,0.00014058
1.617979,0.00006470
1.618979,0.00006886
1.619979,0.00003653
1.620979,0.00003991
1.621979,0.00013389
1.622979,0.00004854
1.623979,0.00012724
1.624979,0.00008602
1.625979,0.00014371
1.626979,0.00001880
1.627979,0.00003135
1.628979,0.00006957
1.629979,0.00006317
1.630979,0.00011471
1.631979,0.00007714
1.632979,0.00004433
1.633979,0.00012292
1.634979,0.00012659
1.635979,0.00007057
1.636979,0.00009708
1.637979,0.00004442
1.638979,0.00006087
1.639979,-0.00000861
1.640979,0.00010195
1.641979,0.00001892
1.642979,0.00004661
1.643979,0.00003522
1.644979,0.00004109
1.645979,0.00003743
1.646979,0.00004734
1.647979,0.00011125
1.648979,0.00006221
1.649979,0.00001264
1.650979,0.00002676
1.651979,-0.00001446
1.652979,-0.00001192
1.653979,-0.00000450
1.654979,0.00009409
1.655979,0.00004148
1.656979,0.00001560
1.657979,-0.00003397
1.658979,0.00004098
1.659979,0.00000310
1.660979,0.00003423
1.661979,0.00002163
1.662979,-0.00001632
1.663979,0.00001099
1.664979,0.00003303
1.665979,0.00004166
1.666979,-0.00004166
1.667979,-0.00000693
1.668979,-0.00003271
1.669979,0.00005875
1.670979,-0.00004423
1.671979,0.00002624
1.672979,0.00001491
1.673979,0.00000790
1.674979,0.00003210
1.675979,0.00002812
1.676979,-0.00001236
1.677979,0.00000801
1.678979,-0.00000423
1.679979,-0.00000881
1.680979,-0.00001095
1.681979,0.00004163
1.682979,0.00006076
1.683979,-0.00000879
1.684979,-0.00001837
1.685979,0.00006764
1.686979,0.00001595
1.687979,0.00002461
1.688979,0.00001242
1.689979,0.00003936
1.690979,0.00003324
1.691979,0.00002229
1.692979,-0.00001438
1.693979,-0.00001430
1.694979,-0.00000737
1.631339,-0.00001126
1.632339,0.00003636
1.633339,-0.00001721
1.634339,0.00001787
1.635339,0.00000882
1.636339,-0.00002432
1.637339,0.00001521
1.638339,-0.00000642
1.639339,-0.00001762
1.640339,-0.00003316
1.641339,0.00000820
1.642339,0.00002669
1.643339,-0.00001552
1.644339,0.00000958
1.645339,0.00000126
1.646339,0.00000253
1.647339,-0.00002224
1.648339,0.00005804
1.649339,0.00006408
1.650339,0.00000551
1.651339,0.00002089
1.652339,0.00004408
1.653339,0.00001431
1.654339,-0.00000944
1.655339,0.00005811
1.656339,0.00000019
1.657339,0.00000318
1.658339,-0.00000418
1.659339,-0.00003633
1.660339,0.00004584
1.661339,-0.00002178
1.662339,-0.00001284
1.663339,0.00001420
1.664339,0.00002793
1.665339,-0.00005427
1.666339,-0.00005293
1.667339,-0.00000740
1.668339,0.00000827
1.669339,-0.00003316
1.670339,0.00001779
1.671339,0.00001653
1.672339,-0.00002275
1.673339,-0.00002521
1.674339,-0.00003599
1.675339,-0.00000049
1.676339,-0.00000670
1.677339,0.00000979
1.678339,0.00000453
1.679339,0.00002080
1.680339,0.00001642
1.681339,-0.00002750
1.682339,0.00003494
1.683339,0.00003874
1.684339,0.00000389
1.685339,0.00000881
1.686339,-0.00001397
1.687339,-0.00004957
1.688339,0.00002693
1.689339,-0.00001605
1.690339,0.00005072
1.691339,0.00000056
1.692339,0.00000006
1.693339,-0.00002128
1.694339,0.00001668
1.695339,-0.00003573
1.696339,-0.00000596
1.697339,-0.00000250
1.698339,0.00000607
1.699339,0.00000038
1.700339,-0.00000270
1.701339,0.00006513
1.702339,-0.00000944
1.703339,-0.00003624
1.704339,-0.00000203
1.705339,-0.00002392
1.706339,0.00005040
1.707339,0.00004578
1.708339,-0.00000155
1.709339,-0.00000426
1.710339,0.00002441
1.711339,-0.00001975
1.712339,0.00001908
1.713339,0.00000681
1.714339,-0.00003121
1.715339,0.00004227
1.716339,-0.00000226
1.717339,-0.00002603
1.718339,-0.00006408
1.719339,0.00001137
1.720339,-0.00002663
1.721339,-0.00001737
1.722339,0.00001618
1.723339,0.00001950
1.724339,-0.00002259
1.725339,0.00003102
1.726339,-0.00002708
1.727339,0.00002044
1.728339,-0.00006031
1.729339,0.00001247
1.730339,-0.00002238
1.654345,0.00003876
1.655345,-0.00006463
1.656345,0.00000042
1.657345,0.00001586
1.658345,-0.00002620
1.659345,-0.00003911
1.660345,0.00003051
1.661345,0.00001260
1.662345,-0.00000370
1.663345,0.00001022
1.664345,0.00002216
1.665345,0.00001699
1.666345,0.00001308
1.667345,0.00004982
1.668345,0.00004331
1.669345,0.00013157
1.670345,0.00013778
1.671345,0.00018293
1.672345,0.00015562
1.673345,0.00026061
1.674345,0.00029407
1.675345,0.00031195
1.676345,0.00043783
1.677345,0.00050188
1.678345,0.00054232
1.679345,0.00070019
1.680345,0.00076164
1.681345,0.00090794
1.682345,0.00097100
1.683345,0.00101524
1.684345,0.00114678
1.685345,0.00112552
1.686345,0.00115414
1.687345,0.00117024
1.688345,0.00115179
1.689345,0.00114145
1.690345,0.00107913
1.691345,0.00104702
1.692345,0.00093166
1.693345,0.00087682
1.694345,0.00081082
1.695345,0.00069908
1.696345,0.00065588
1.697345,0.00047890
1.698345,0.00036681
1.699345,0.00029017
1.700345,0.00017804
1.701345,0.00013349
1.702345,0.00008478
1.703345,-0.00000508
1.704345,-0.00006259
1.705345,-0.00010350
1.706345,-0.00014513
1.707345,-0.00016881
1.708345,-0.00024318
1.709345,-0.00021710
1.710345,-0.00023112
1.711345,-0.00034119
1.712345,-0.00025853
1.713345,-0.00027963
1.714345,-0.00029741
1.715345,-0.00030692
1.716345,-0.00029656
1.717345,-0.00027054
1.718345,-0.00021486
1.719345,-0.00022428
1.720345,-0.00019721
1.721345,-0.00016281
1.722345,-0.00012317
1.723345,-0.00013168
1.724345,-0.00010717
1.725345,-0.00010251
1.726345,-0.00006412
1.727345,-0.00005408
1.728345,-0.00006299
1.729345,-0.00008096
1.730345,-0.00003474
1.731345,-0.00003261
1.732345,0.00001405
1.733345,-0.00003473
1.734345,-0.00006325
1.735345,-0.00010434
1.736345,0.00000215
1.737345,0.00002112
1.738345,-0.00003477
1.739345,-0.00005480
1.740345,0.00006549
1.741345,0.00008143
1.742345,0.00003478
1.743345,0.00002410
1.744345,0.00001237
1.745345,0.00006419
1.746345,0.00007201
1.747345,0.00009030
1.748345,0.00005584
1.749345,0.00004409
1.750345,0.00005638
1.751345,0.00004032
1.752345,0.00017091
1.753345,0.00005511
1.685661,0.00004759
1.686661,0.00006925
1.687661,0.00001760
1.688661,0.00005350
1.689661,0.00003594
1.690661,0.00009650
1.691661,0.00008125
1.692661,0.00007691
1.693661,0.00012159
1.694661,0.00009908
1.695661,0.00007947
1.696661,0.00011053
1.697661,0.00009461
1.698661,0.00011354
1.699661,0.00011121
1.700661,0.00012437
1.701661,0.00017708
1.702661,0.00015555
1.703661,0.00013784
1.704661,0.00016281
1.705661,0.00017366
1.706661,0.00007904
1.707661,0.00009626
1.708661,0.00009531
1.709661,0.00011690
1.710661,0.00014160
1.711661,0.00015585
1.712661,0.00015448
1.713661,0.00010304
1.714661,0.00018838
1.715661,0.00015900
1.716661,0.00017746
1.717661,0.00013363
1.718661,0.00015054
1.719661,0.00016780
1.720661,0.00014673
1.721661,0.00015094
1.722661,0.00012930
1.723661,0.00017575
1.724661,0.00019666
1.725661,0.00020068
1.726661,0.00021738
1.727661,0.00014136
1.728661,0.00012108
1.729661,0.00016080
1.730661,0.00018995
1.731661,0.00017419
1.732661,0.00020706
1.733661,0.00020850
1.734661,0.00022114
1.735661,0.00015287
1.736661,0.00019441
1.737661,0.00021344
1.738661,0.00020938
1.739661,0.00019563
1.740661,0.00019079
1.741661,0.00022684
1.742661,0.00021816
1.743661,0.00024056
1.744661,0.00021117
1.745661,0.00016198
1.746661,0.00026404
1.747661,0.00021406
1.748661,0.00023723
1.749661,0.00017247
1.750661,0.00023118
1.751661,0.00020875
1.752661,0.00021168
1.753661,0.00022646
1.754661,0.00022636
1.755661,0.00022178
1.756661,0.00021859
1.757661,0.00019818
1.758661,0.00021706
1.759661,0.00019692
1.760661,0.00018597
1.761661,0.00021069
1.762661,0.00018863
1.763661,0.00019477
1.764661,0.00019107
1.765661,0.00022816
1.766661,0.00023413
1.767661,0.00020741
1.768661,0.00020532
1.769661,0.00020840
1.770661,0.00020165
1.771661,0.00020855
1.772661,0.00023492
1.773661,0.00014983
1.774661,0.00017005
1.775661,0.00021082
1.776661,0.00017002
1.777661,0.00021312
1.778661,0.00014630
1.779661,0.00018475
1.780661,0.00018371
1.781661,0.00014632
1.782661,0.00014382
1.783661,0.00017558
1.784661,0.00014112
1.727034,0.00015009
1.728034,0.00006916
1.729034,0.00009650
1.730034,0.00014775
1.731034,0.00015274
1.732034,0.00009920
1.733034,0.00006074
1.734034,0.00010738
1.735034,0.00014325
1.736034,0.00009284
1.737034,0.00007538
1.738034,0.00007892
1.739034,0.00010404
1.740034,0.00014181
1.741034,0.00004357
1.742034,0.00010757
1.743034,0.00012372
1.744034,0.00012925
1.745034,0.00016492
1.746034,0.00011966
1.747034,0.00005957
1.748034,0.00009995
1.749034,0.00011563
1.750034,0.00013569
1.751034,0.00015874
1.752034,0.00009316
1.753034,0.00009385
1.754034,0.00004287
1.755034,0.00004977
1.756034,0.00006848
1.757034,0.00003405
1.758034,0.00005767
1.759034,0.00006451
1.760034,0.00011887
1.761034,0.00005773
1.762034,0.00006768
1.763034,0.00007510
1.764034,0.00006341
1.765034,0.00007328
1.766034,0.00000574
1.767034,0.00001092
1.768034,0.00009508
1.769034,0.00000682
1.770034,0.00005245
1.771034,0.00000981
1.772034,0.00002405
1.773034,0.00007189
1.774034,0.00003309
1.775034,0.00003261
1.776034,0.00003986
1.777034,0.00001593
1.778034,0.00005609
1.779034,0.00000161
1.780034,-0.00002682
1.781034,-0.00002443
1.782034,0.00004077
1.783034,-0.00000346
1.784034,-0.00001399
1.785034,0.00002317
1.786034,0.00004018
1.787034,-0.00000450
1.788034,0.00003878
1.789034,0.00000127
1.790034,-0.00003118
1.791034,0.00008195
1.792034,0.00003649
1.793034,0.00001298
1.794034,0.00002509
1.795034,0.00002926
1.796034,-0.00000581
1.797034,-0.00000329
1.798034,-0.00003692
1.799034,-0.00002136
1.800034,0.00003351
1.801034,-0.00002039
1.802034,0.00003502
1.803034,-0.00000174
1.804034,0.00001711
1.805034,0.00005333
1.806034,0.00001633
1.807034,-0.00001082
1.808034,-0.00000821
1.809034,-0.00003648
1.810034,-0.00002226
1.811034,0.00000233
1.812034,0.00001869
1.813034,0.00003919
1.814034,0.00000768
1.815034,0.00000955
1.816034,0.00001814
1.817034,0.00002683
1.818034,-0.00003891
1.819034,0.00007411
1.820034,-0.00000523
1.821034,0.00001937
1.822034,-0.00000420
1.823034,0.00000181
1.824034,0.00002134
1.825034,0.00003980
1.826034,-0.00001035
1.758370,-0.00000447
1.759370,-0.00002985
1.760370,0.00000196
1.761370,0.00000454
1.762370,0.00003664
1.763370,0.00002928
1.764370,0.00000406
1.765370,-0.00005282
1.766370,0.00002986
1.767370,0.00007448
1.768370,-0.00000717
1.769370,-0.00001941
1.770370,0.00000322
1.771370,-0.00002282
1.772370,-0.00000527
1.773370,-0.00001526
1.774370,-0.00001051
1.775370,0.00000226
1.776370,0.00000894
1.777370,0.00001055
1.778370,-0.00003857
1.779370,0.00003179
1.780370,0.00002265
1.781370,-0.00000418
1.782370,0.00008112
1.783370,-0.00006460
1.784370,-0.00003965
1.785370,-0.00005214
1.786370,0.00005117
1.787370,0.00002083
1.788370,0.00005808
1.789370,-0.00002165
1.790370,0.00000685
1.791370,0.00000750
1.792370,-0.00001242
1.793370,-0.00001569
1.794370,-0.00000376
1.795370,0.00002479
1.796370,0.00004527
1.797370,0.00002105
1.798370,-0.00001646
1.799370,-0.00000847
1.800370,0.00000918
1.801370,-0.00001119
1.802370,-0.00001806
1.803370,0.00003647
1.804370,0.00001271
1.805370,-0.00002442
1.806370,-0.00002028
1.807370,-0.00000791
1.808370,0.00001455
1.809370,0.00000429
1.810370,-0.00000493
1.811370,-0.00000402
1.812370,0.00000424
1.813370,0.00001988
1.814370,-0.00004586
1.815370,0.00004481
1.816370,-0.00000822
1.817370,-0.00001753
1.818370,-0.00004488
1.819370,-0.00001004
1.820370,-0.00000361
1.821370,-0.00004654
1.822370,0.00001934
1.823370,-0.00002492
1.824370,0.00005184
1.825370,0.00000069
1.826370,-0.00004779
1.827370,-0.00002309
1.828370,-0.00001873
1.829370,0.00005294
1.830370,-0.00002575
1.831370,0.00001409
1.832370,0.00002767
1.833370,0.00001252
1.834370,0.00001129
1.835370,-0.00004574
1.836370,0.00002262
1.837370,0.00003080
1.838370,-0.00000532
1.839370,-0.00003275
1.840370,-0.00003459
1.841370,0.00002705
1.842370,0.00001304
1.843370,-0.00000040
1.844370,-0.00004636
1.845370,-0.00003949
1.846370,-0.00001236
1.847370,-0.00003046
1.848370,0.00004036
1.849370,-0.00001016
1.850370,0.00001806
1.851370,0.00006035
1.852370,-0.00003311
1.853370,0.00002986
1.854370,-0.00002870
1.855370,-0.00002919
1.856370,0.00004760
1.857370,0.00002451
1.789930,0.00000238
1.790930,-0.00002160
1.791930,-0.00000617
1.792930,-0.00003876
1.793930,0.00001196
1.794930,-0.00003101
1.795930,-0.00001775
1.796930,0.00006167
1.797930,0.00000444
1.798930,0.00002939
1.799930,-0.00000119
1.800930,-0.00001628
1.801930,0.00001614
1.802930,-0.00000886
1.803930,0.00002180
1.804930,-0.00003185
1.805930,0.00002386
1.806930,0.00001146
1.807930,0.00002728
1.808930,0.00003378
1.809930,0.00003894
1.810930,-0.00004713
1.811930,-0.00000648
1.812930,0.00000463
1.813930,0.00001281
1.814930,0.00002458
1.815930,-0.00003336
1.816930,0.00004331
1.817930,0.00003721
1.818930,0.00003844
1.819930,-0.00000979
1.820930,0.00003472
1.821930,0.00004991
1.822930,0.00000513
1.823930,0.00001659
1.824930,-0.00005723
1.825930,0.00004008
1.826930,-0.00000898
1.827930,-0.00005114
1.828930,-0.00000617
1.829930,0.00000954
1.830930,0.00001038
1.831930,-0.00000411
1.832930,0.00001333
1.833930,-0.00001929
1.834930,-0.00001596
1.835930,0.00000505
1.836930,0.00001556
1.837930,-0.00006922
1.838930,-0.00002094
1.839930,-0.00000767
1.840930,-0.00005199
1.841930,-0.00004312
1.842930,-0.00000234
1.843930,0.00000150
1.844930,-0.00002782
1.845930,-0.00001099
1.846930,0.00000351
1.847930,-0.00002462
1.848930,-0.00002049
1.849930,0.00000700
1.850930,0.00000542
1.851930,0.00000799
1.852930,0.00002641
1.853930,-0.00002946
1.854930,-0.00002013
1.855930,0.00000235
1.856930,0.00005775
1.857930,-0.00001200
1.858930,0.00004634
1.859930,0.00004045
1.860930,-0.00005018
1.861930,0.00001505
1.862930,0.00003775
1.863930,0.00004930
1.864930,-0.00000731
1.865930,-0.00006280
1.866930,0.00000817
1.867930,0.00000017
1.868930,0.00004238
1.869930,-0.00002137
1.870930,-0.00001628
1.871930,-0.00007309
1.872930,0.00001741
1.873930,0.00001647
1.874930,-0.00002000
1.875930,0.00003294
1.876930,0.00004205
1.877930,0.00001593
1.878930,0.00001870
1.879930,0.00002648
1.880930,-0.00005055
1.881930,0.00004022
1.882930,-0.00003409
1.883930,0.00000747
1.884930,-0.00002866
1.885930,0.00000154
1.886930,0.00003541
1.887930,0.00000162
1.888930,0.00003578
1.821319,0.00002703
1.822319,-0.00005338
1.823319,0.00001139
1.824319,-0.00004329
1.825319,-0.00001201
1.826319,-0.00006248
1.827319,-0.00005393
1.828319,-0.00000024
1.829319,-0.00003535
1.830319,-0.00002016
1.831319,-0.00001220
1.832319,-0.00002121
1.833319,-0.00000793
1.834319,-0.00001346
1.835319,0.00003691
1.836319,0.00002331
1.837319,-0.00002502
1.838319,0.00000947
1.839319,0.00001205
1.840319,0.00004215
1.841319,-0.00003230
1.842319,-0.00002021
1.843319,0.00001453
1.844319,0.00004387
1.845319,0.00002446
1.846319,0.00000449
1.847319,-0.00002983
1.848319,-0.00001987
1.849319,0.00001554
1.850319,0.00003201
1.851319,0.00000996
1.852319,0.00002912
1.853319,-0.00005980
1.854319,-0.00002252
1.855319,0.00003143
1.856319,0.00003521
1.857319,-0.00000909
1.858319,0.00008460
1.859319,0.00001828
1.860319,0.00000027
1.861319,-0.00002484
1.862319,-0.00004555
1.863319,-0.00004000
1.864319,0.00001578
1.865319,0.00001773
1.866319,-0.00002994
1.867319,-0.00001363
1.868319,0.00002892
1.869319,-0.00005753
1.870319,0.00003986
1.871319,-0.00001278
1.872319,0.00001470
1.873319,0.00003366
1.874319,0.00002899
1.875319,-0.00002811
1.876319,0.00001935
1.877319,0.00002726
1.878319,-0.00001654
1.879319,0.00008619
1.880319,0.00002672
1.881319,-0.00005710
1.882319,-0.00002417
1.883319,-0.00000301
1.884319,0.00000332
1.885319,0.00000361
1.886319,-0.00000840
1.887319,0.00001520
1.888319,-0.00003302
1.889319,0.00000604
1.890319,0.00003947
1.891319,0.00000800
1.892319,-0.00000992
1.893319,0.00004769
1.894319,0.00002755
1.895319,-0.00003250
1.896319,0.00000826
1.897319,0.00000555
1.898319,0.00000682
1.899319,0.00001739
1.900319,-0.00000683
1.901319,-0.00002203
1.902319,0.00005990
1.903319,-0.00002370
1.904319,-0.00002177
1.905319,-0.00002297
1.906319,-0.00001671
1.907319,-0.00004035
1.908319,-0.00004773
1.909319,0.00002903
1.910319,0.00002340
1.911319,-0.00003923
1.912319,0.00005328
1.913319,0.00001225
1.914319,0.00007145
1.915319,-0.00001168
1.916319,0.00000077
1.917319,0.00001455
1.918319,-0.00002408
1.919319,0.00004148
1.920319,0.00005542
1.852989,0.00002460
