timestamp,ch1_ecg_V
-0.088049,-0.00001314
-0.087049,0.00005694
-0.086049,-0.00003785
-0.085049,-0.00002110
-0.084049,-0.00002509
-0.083049,0.00001800
-0.082049,-0.00001743
-0.081049,-0.00001800
-0.080049,0.00000336
-0.079049,0.00001739
-0.078049,-0.00003493
-0.077049,0.00000053
-0.076049,0.00001059
-0.075049,0.00004210
-0.074049,0.00001865
-0.073049,0.00004359
-0.072049,0.00000951
-0.071049,0.00004393
-0.070049,0.00000233
-0.069049,0.00003369
-0.068049,-0.00003441
-0.067049,-0.00004059
-0.066049,0.00001564
-0.065049,0.00001247
-0.064049,-0.00002760
-0.063049,-0.00000483
-0.062049,0.00003010
-0.061049,0.00007931
-0.060049,0.00001568
-0.059049,-0.00000803
-0.058049,0.00000006
-0.057049,0.00005700
-0.056049,-0.00004834
-0.055049,0.00003471
-0.054049,-0.00004372
-0.053049,0.00000986
-0.052049,-0.00004014
-0.051049,0.00002942
-0.050049,0.00001970
-0.049049,0.00007630
-0.048049,0.00000967
-0.047049,-0.00000439
-0.046049,0.00005623
-0.045049,-0.00001875
-0.044049,0.00000807
-0.043049,0.00000974
-0.042049,0.00005011
-0.041049,0.00001126
-0.040049,-0.00000346
-0.039049,0.00000789
-0.038049,0.00003350
-0.037049,-0.00001629
-0.036049,-0.00004240
-0.035049,0.00000417
-0.034049,-0.00000802
-0.033049,0.00001246
-0.032049,-0.00003334
-0.031049,0.00001879
-0.030049,0.00006321
-0.029049,-0.00002099
-0.028049,0.00001016
-0.027049,0.00005311
-0.026049,0.00001535
-0.025049,-0.00002548
-0.024049,0.00003302
-0.023049,-0.00002498
-0.022049,0.00001781
-0.021049,-0.00000875
-0.020049,-0.00002053
-0.019049,-0.00004253
-0.018049,0.00002111
-0.017049,0.00002805
-0.016049,0.00005042
-0.015049,-0.00005436
-0.014049,-0.00000121
-0.013049,-0.00001541
-0.012049,0.00003866
-0.011049,0.00002087
-0.010049,0.00000960
-0.009049,-0.00000703
-0.008049,0.00001825
-0.007049,-0.00001087
-0.006049,-0.00001842
-0.005049,0.00000387
-0.004049,0.00002551
-0.003049,-0.00001375
-0.002049,0.00002106
-0.001049,-0.00001454
-0.000049,0.00003702
0.000951,-0.00002138
0.001951,-0.00000529
0.002951,0.00001693
0.003951,-0.00004508
0.004951,-0.00001231
0.005951,-0.00003255
0.006951,-0.00001476
0.007951,-0.00004571
0.008951,-0.00000238
0.009951,-0.00001448
0.010951,0.00000694
-0.057948,-0.00005289
-0.056948,0.00000914
-0.055948,-0.00001332
-0.054948,0.00003611
-0.053948,-0.00001101
-0.052948,-0.00001532
-0.051948,-0.00000714
-0.050948,-0.00004231
-0.049948,0.00000007
-0.048948,0.00007119
-0.047948,-0.00005207
-0.046948,0.00000049
-0.045948,-0.00003790
-0.044948,0.00003149
-0.043948,0.00006417
-0.042948,0.00003261
-0.041948,0.00009131
-0.040948,0.00020424
-0.039948,0.00016284
-0.038948,0.00016468
-0.037948,0.00029239
-0.036948,0.00032634
-0.035948,0.00045339
-0.034948,0.00053424
-0.033948,0.00063608
-0.032948,0.00065566
-0.031948,0.00077501
-0.030948,0.00087267
-0.029948,0.00095618
-0.028948,0.00108351
-0.027948,0.00109837
-0.026948,0.00115652
-0.025948,0.00118518
-0.024948,0.00118625
-0.023948,0.00119810
-0.022948,0.00116515
-0.021948,0.00107945
-0.020948,0.00104399
-0.019948,0.00091973
-0.018948,0.00091788
-0.017948,0.00081473
-0.016948,0.00067761
-0.015948,0.00062936
-0.014948,0.00050659
-0.013948,0.00035346
-0.012948,0.00028845
-0.011948,0.00019338
-0.010948,0.00013244
-0.009948,0.00007722
-0.008948,0.00000440
-0.007948,-0.00007762
-0.006948,-0.00015328
-0.005948,-0.00015671
-0.004948,-0.00016120
-0.003948,-0.00023871
-0.002948,-0.00024541
-0.001948,-0.00025464
-0.000948,-0.00031796
0.000052,-0.00032373
0.001052,-0.00022326
0.002052,-0.00029100
0.003052,-0.00020724
0.004052,-0.00025226
0.005052,-0.00021598
0.006052,-0.00022313
0.007052,-0.00019831
0.008052,-0.00020729
0.009052,-0.00017970
0.010052,-0.00017472
0.011052,-0.00015397
0.012052,-0.00012383
0.013052,-0.00013127
0.014052,-0.00013857
0.015052,-0.00007913
0.016052,-0.00007475
0.017052,-0.00006511
0.018052,-0.00011080
0.019052,-0.00004055
0.020052,-0.00003054
0.021052,-0.00003377
0.022052,-0.00005910
0.023052,-0.00000260
0.024052,0.00001080
0.025052,-0.00003675
0.026052,0.00003962
0.027052,0.00004336
0.028052,0.00000254
0.029052,0.00005405
0.030052,0.00000508
0.031052,0.00007059
0.032052,0.00008737
0.033052,0.00001849
0.034052,0.00002113
0.035052,0.00004411
0.036052,0.00004801
0.037052,0.00000756
0.038052,0.00002251
0.039052,0.00009856
0.040052,0.00006113
0.041052,0.00006395
-0.033360,0.00005789
-0.032360,0.00004381
-0.031360,0.00007401
-0.030360,0.00004999
-0.029360,0.00004538
-0.028360,0.00002353
-0.027360,0.00004439
-0.026360,0.00006296
-0.025360,0.00010705
-0.024360,0.00012471
-0.023360,0.00006866
-0.022360,0.00008411
-0.021360,0.00006359
-0.020360,0.00009283
-0.019360,0.00015573
-0.018360,0.00013426
-0.017360,0.00010497
-0.016360,0.00012274
-0.015360,0.00012764
-0.014360,0.00014950
-0.013360,0.00015267
-0.012360,0.00008198
-0.011360,0.00009182
-0.010360,0.00016601
-0.009360,0.00011056
-0.008360,0.00014687
-0.007360,0.00012058
-0.006360,0.00017542
-0.005360,0.00014909
-0.004360,0.00018481
-0.003360,0.00021204
-0.002360,0.00012920
-0.001360,0.00014151
-0.000360,0.00020921
0.000640,0.00015674
0.001640,0.00018760
0.002640,0.00014760
0.003640,0.00015565
0.004640,0.00017367
0.005640,0.00015329
0.006640,0.00015271
0.007640,0.00015060
0.008640,0.00016574
0.009640,0.00017505
0.010640,0.00020791
0.011640,0.00018833
0.012640,0.00020959
0.013640,0.00019350
0.014640,0.00018875
0.015640,0.00021044
0.016640,0.00017515
0.017640,0.00017394
0.018640,0.00022500
0.019640,0.00016348
0.020640,0.00019578
0.021640,0.00019399
0.022640,0.00019552
0.023640,0.00028113
0.024640,0.00021555
0.025640,0.00025267
0.026640,0.00016989
0.027640,0.00023881
0.028640,0.00025753
0.029640,0.00015806
0.030640,0.00019179
0.031640,0.00024238
0.032640,0.00025391
0.033640,0.00019701
0.034640,0.00025418
0.035640,0.00018707
0.036640,0.00022025
0.037640,0.00020133
0.038640,0.00021872
0.039640,0.00024728
0.040640,0.00020729
0.041640,0.00018858
0.042640,0.00020110
0.043640,0.00025325
0.044640,0.00023590
0.045640,0.00026712
0.046640,0.00021817
0.047640,0.00017287
0.048640,0.00024490
0.049640,0.00025258
0.050640,0.00023060
0.051640,0.00021517
0.052640,0.00021047
0.053640,0.00015266
0.054640,0.00013492
0.055640,0.00017578
0.056640,0.00019667
0.057640,0.00016773
0.058640,0.00019874
0.059640,0.00019746
0.060640,0.00017901
0.061640,0.00018384
0.062640,0.00014752
0.063640,0.00016338
0.064640,0.00018283
0.065640,0.00014053
-0.001097,0.00018087
-0.000097,0.00022310
0.000903,0.00021820
0.001903,0.00019690
0.002903,0.00009889
0.003903,0.00012949
0.004903,0.00015175
0.005903,0.00012096
0.006903,0.00011270
0.007903,0.00011593
0.008903,0.00014248
0.009903,0.00013047
0.010903,0.00013822
0.011903,0.00014483
0.012903,0.00008530
0.013903,0.00013899
0.014903,0.00008239
0.015903,0.00013767
0.016903,0.00006739
0.017903,0.00005098
0.018903,0.00010551
0.019903,0.00004139
0.020903,0.00010331
0.021903,0.00012627
0.022903,0.00009510
0.023903,0.00007427
0.024903,0.00011734
0.025903,0.00011009
0.026903,0.00003909
0.027903,0.00008061
0.028903,0.00003867
0.029903,0.00002934
0.030903,0.00006048
0.031903,0.00007834
0.032903,0.00005320
0.033903,0.00006905
0.034903,0.00003345
0.035903,0.00004580
0.036903,0.00010530
0.037903,0.00003865
0.038903,0.00004473
0.039903,0.00002978
0.040903,0.00002046
0.041903,0.00004943
0.042903,0.00007632
0.043903,0.00001804
0.044903,0.00004725
0.045903,-0.00005501
0.046903,0.00004801
0.047903,0.00003182
0.048903,0.00007667
0.049903,0.00005579
0.050903,0.00002810
0.051903,-0.00000522
0.052903,0.00002807
0.053903,0.00005828
0.054903,0.00002290
0.055903,0.00000683
0.056903,0.00005533
0.057903,-0.00002005
0.058903,0.00001800
0.059903,0.00000027
0.060903,-0.00000833
0.061903,0.00001481
0.062903,0.00001710
0.063903,-0.00003181
0.064903,0.00001999
0.065903,0.00001254
0.066903,0.00004216
0.067903,-0.00002168
0.068903,0.00000190
0.069903,-0.00000913
0.070903,0.00002146
0.071903,0.00000434
0.072903,0.00001101
0.073903,0.00000766
0.074903,0.00002329
0.075903,0.00002634
0.076903,0.00001964
0.077903,-0.00003599
0.078903,-0.00000038
0.079903,-0.00000067
0.080903,-0.00004019
0.081903,0.00002638
0.082903,0.00001992
0.083903,0.00001648
0.084903,-0.00002550
0.085903,0.00006189
0.086903,-0.00000341
0.087903,-0.00007350
0.088903,0.00005111
0.089903,0.00002022
0.090903,-0.00001784
0.091903,-0.00000236
0.092903,0.00001437
0.093903,0.00001722
0.094903,0.00000088
0.095903,0.00000222
0.096903,-0.00001976
0.097903,-0.00001930
0.030819,0.00003742
0.031819,0.00000429
0.032819,0.00003300
0.033819,-0.00003132
0.034819,0.00002238
0.035819,-0.00000624
0.036819,-0.00003897
0.037819,0.00002809
0.038819,0.00000873
0.039819,0.00000948
0.040819,-0.00001394
0.041819,-0.00002197
0.042819,-0.00001268
0.043819,0.00002474
0.044819,0.00001168
0.045819,0.00002707
0.046819,-0.00000673
0.047819,0.00001469
0.048819,0.00002022
0.049819,0.00002106
0.050819,-0.00005144
0.051819,0.00001886
0.052819,0.00003217
0.053819,0.00006066
0.054819,0.00001192
0.055819,0.00001260
0.056819,-0.00002867
0.057819,-0.00005576
0.058819,-0.00001046
0.059819,-0.00005016
0.060819,0.00000055
0.061819,-0.00001651
0.062819,-0.00002783
0.063819,-0.00000470
0.064819,-0.00003647
0.065819,0.00000151
0.066819,0.00000243
0.067819,-0.00000899
0.068819,0.00003594
0.069819,0.00000103
0.070819,0.00000348
0.071819,-0.00002015
0.072819,0.00001591
0.073819,-0.00000158
0.074819,0.00000887
0.075819,0.00001089
0.076819,0.00000456
0.077819,0.00001299
0.078819,0.00002164
0.079819,-0.00001357
0.080819,0.00006464
0.081819,0.00003077
0.082819,-0.00000871
0.083819,0.00001242
0.084819,-0.00005476
0.085819,0.00001400
0.086819,-0.00002635
0.087819,0.00000150
0.088819,-0.00002447
0.089819,-0.00003349
0.090819,-0.00000290
0.091819,-0.00005206
0.092819,0.00000683
0.093819,0.00005103
0.094819,0.00001370
0.095819,0.00003891
0.096819,-0.00002754
0.097819,-0.00004824
0.098819,0.00003033
0.099819,-0.00002538
0.100819,0.00002476
0.101819,0.00003829
0.102819,-0.00004399
0.103819,0.00000346
0.104819,-0.00001537
0.105819,-0.00001471
0.106819,-0.00001117
0.107819,0.00000369
0.108819,-0.00002352
0.109819,0.00001201
0.110819,0.00005625
0.111819,0.00003652
0.112819,-0.00002971
0.113819,-0.00000569
0.114819,-0.00002610
0.115819,0.00000010
0.116819,-0.00003405
0.117819,-0.00001205
0.118819,0.00002607
0.119819,0.00002158
0.120819,0.00004568
0.121819,-0.00001519
0.122819,-0.00002582
0.123819,0.00004751
0.124819,0.00004248
0.125819,-0.00000957
0.126819,-0.00000086
0.127819,-0.00000318
0.128819,-0.00005864
0.129819,-0.00011625
0.083579,-0.00002552
0.084579,-0.00000468
0.085579,0.00002239
0.086579,-0.00003992
0.087579,-0.00001908
0.088579,0.00002381
0.089579,-0.00000245
0.090579,0.00001553
0.091579,-0.00003498
0.092579,-0.00001121
0.093579,-0.00005112
0.094579,-0.00003047
0.095579,-0.00000475
0.096579,0.00000585
0.097579,0.00001331
0.098579,0.00000627
0.099579,0.00001362
0.100579,0.00001168
0.101579,-0.00001566
0.102579,-0.00005201
0.103579,-0.00001199
0.104579,-0.00004392
0.105579,0.00001391
0.106579,-0.00004744
0.107579,0.00002533
0.108579,-0.00000021
0.109579,-0.00004657
0.110579,0.00001602
0.111579,0.00001040
0.112579,0.00000966
0.113579,-0.00009014
0.114579,0.00008680
0.115579,0.00000838
0.116579,0.00003225
0.117579,-0.00000517
0.118579,0.00002234
0.119579,-0.00003075
0.120579,-0.00001510
0.121579,-0.00000589
0.122579,-0.00002713
0.123579,-0.00003687
0.124579,-0.00002203
0.125579,-0.00005230
0.126579,0.00002578
0.127579,0.00001693
0.128579,0.00002631
0.129579,-0.00000384
0.130579,-0.00001616
0.131579,-0.00001111
0.132579,0.00000641
0.133579,-0.00000769
0.134579,-0.00002212
0.135579,0.00004205
0.136579,0.00003355
0.137579,0.00002421
0.138579,0.00002968
0.139579,0.00002520
0.140579,-0.00000930
0.141579,0.00001472
0.142579,-0.00003894
0.143579,-0.00000798
0.144579,-0.00002798
0.145579,0.00005581
0.146579,0.00004155
0.147579,-0.00002865
0.148579,-0.00000415
0.149579,0.00000388
0.150579,0.00002935
0.151579,0.00000037
0.152579,-0.00001549
0.153579,0.00001507
0.154579,-0.00002701
0.155579,-0.00004465
0.156579,0.00001737
0.157579,0.00003956
0.158579,0.00005362
0.159579,0.00000762
0.160579,-0.00003868
0.161579,0.00006267
0.162579,-0.00000643
0.163579,0.00003197
0.164579,0.00002330
0.165579,-0.00002844
0.166579,0.00001922
0.167579,0.00001371
0.168579,0.00001541
0.169579,-0.00005703
0.170579,0.00001900
0.171579,0.00002312
0.172579,-0.00000360
0.173579,-0.00000859
0.174579,-0.00000812
0.175579,0.00000782
0.176579,0.00001480
0.177579,0.00004928
0.178579,-0.00001577
0.179579,0.00004527
0.180579,0.00003172
0.181579,-0.00012284
0.182579,0.00001483
0.114770,0.00001576
0.115770,-0.00002897
0.116770,-0.00000483
0.117770,0.00002384
0.118770,0.00002711
0.119770,0.00002228
0.120770,-0.00002569
0.121770,-0.00003200
0.122770,-0.00001690
0.123770,-0.00002057
0.124770,0.00000405
0.125770,0.00000290
0.126770,-0.00005958
0.127770,-0.00000732
0.128770,-0.00001444
0.129770,0.00002617
0.130770,-0.00001423
0.131770,-0.00002378
0.132770,0.00004017
0.133770,0.00004594
0.134770,-0.00001248
0.135770,0.00001558
0.136770,0.00002323
0.137770,-0.00004010
0.138770,-0.00001280
0.139770,-0.00002831
0.140770,-0.00000802
0.141770,-0.00000296
0.142770,0.00005753
0.143770,-0.00000647
0.144770,0.00001890
0.145770,0.00003709
0.146770,0.00004332
0.147770,0.00004476
0.148770,0.00001469
0.149770,-0.00000309
0.150770,-0.00002092
0.151770,0.00000250
0.152770,0.00004506
0.153770,-0.00006000
0.154770,0.00003396
0.155770,-0.00000610
0.156770,-0.00005071
0.157770,-0.00003510
0.158770,-0.00002556
0.159770,-0.00002754
0.160770,-0.00003530
0.161770,0.00000980
0.162770,-0.00002228
0.163770,0.00002286
0.164770,0.00005367
0.165770,-0.00003168
0.166770,0.00001032
0.167770,0.00001787
0.168770,0.00001099
0.169770,-0.00000179
0.170770,0.00000667
0.171770,-0.00003185
0.172770,0.00001892
0.173770,0.00005628
0.174770,0.00003374
0.175770,0.00000281
0.176770,-0.00001381
0.177770,-0.00002062
0.178770,-0.00000048
0.179770,0.00004715
0.180770,0.00002098
0.181770,-0.00001103
0.182770,0.00000891
0.183770,0.00000222
0.184770,-0.00005893
0.185770,-0.00000130
0.186770,0.00003158
0.187770,-0.00004226
0.188770,-0.00004609
0.189770,0.00002626
0.190770,-0.00002344
0.191770,0.00002765
0.192770,0.00002650
0.193770,0.00002776
0.194770,-0.00003971
0.195770,0.00001184
0.196770,-0.00004802
0.197770,0.00000645
0.198770,-0.00000938
0.199770,0.00004162
0.200770,-0.00004558
0.201770,-0.00002268
0.202770,0.00002095
0.203770,-0.00003748
0.204770,-0.00003598
0.205770,0.00006155
0.206770,0.00003746
0.207770,0.00005869
0.208770,0.00004250
0.209770,0.00004456
0.210770,-0.00007495
0.211770,0.00001458
0.212770,-0.00002162
0.213770,0.00000422
0.146031,-0.00000256
0.147031,0.00004252
0.148031,-0.00004597
0.149031,-0.00000354
0.150031,0.00005156
0.151031,0.00004017
0.152031,-0.00001034
0.153031,0.00005676
0.154031,0.00004818
0.155031,0.00002054
0.156031,0.00004374
0.157031,0.00004449
0.158031,0.00004561
0.159031,0.00003051
0.160031,0.00004124
0.161031,0.00006587
0.162031,-0.00002177
0.163031,-0.00002286
0.164031,0.00001036
0.165031,0.00002929
0.166031,-0.00000967
0.167031,0.00004747
0.168031,0.00004524
0.169031,0.00005471
0.170031,0.00010632
0.171031,0.00010926
0.172031,0.00005355
0.173031,0.00005992
0.174031,0.00008588
0.175031,0.00006928
0.176031,0.00010069
0.177031,0.00004450
0.178031,0.00007943
0.179031,0.00002468
0.180031,0.00015507
0.181031,0.00011384
0.182031,0.00009007
0.183031,0.00008285
0.184031,0.00006984
0.185031,0.00005315
0.186031,0.00007280
0.187031,0.00005834
0.188031,0.00008721
0.189031,0.00010909
0.190031,0.00011344
0.191031,0.00004235
0.192031,0.00006184
0.193031,0.00005690
0.194031,0.00009167
0.195031,0.00012140
0.196031,0.00010961
0.197031,0.00008224
0.198031,0.00009817
0.199031,0.00008776
0.200031,0.00009429
0.201031,0.00006656
0.202031,0.00008940
0.203031,0.00006713
0.204031,0.00009336
0.205031,0.00006992
0.206031,0.00007895
0.207031,0.00005463
0.208031,0.00007786
0.209031,0.00009930
0.210031,0.00009385
0.211031,0.00005148
0.212031,0.00002455
0.213031,0.00000926
0.214031,0.00007509
0.215031,0.00008589
0.216031,0.00009612
0.217031,0.00005706
0.218031,0.00004619
0.219031,0.00001678
0.220031,0.00006280
0.221031,0.00004328
0.222031,0.00005486
0.223031,-0.00001907
0.224031,0.00007067
0.225031,0.00006169
0.226031,0.00007890
0.227031,0.00001250
0.228031,0.00005438
0.229031,0.00004318
0.230031,0.00003867
0.231031,0.00007158
0.232031,0.00001879
0.233031,0.00005653
0.234031,0.00005611
0.235031,0.00003039
0.236031,0.00003327
0.237031,0.00002400
0.238031,0.00003221
0.239031,0.00002481
0.240031,0.00001535
0.241031,-0.00000520
0.242031,0.00002051
0.243031,0.00002625
0.244031,0.00000256
0.245031,0.00003171
0.177864,0.00007412
0.178864,0.00000468
0.179864,0.00003152
0.180864,0.00003101
0.181864,0.00002706
0.182864,0.00007650
0.183864,-0.00005673
0.184864,0.00002657
0.185864,-0.00002027
0.186864,0.00003275
0.187864,0.00000787
0.188864,0.00002015
0.189864,-0.00000110
0.190864,-0.00001882
0.191864,-0.00003638
0.192864,0.00004022
0.193864,0.00000711
0.194864,-0.00000114
0.195864,0.00001781
0.196864,-0.00000624
0.197864,-0.00001491
0.198864,0.00004984
0.199864,0.00003562
0.200864,0.00000643
0.201864,0.00001313
0.202864,0.00001382
0.203864,-0.00000589
0.204864,-0.00003102
0.205864,-0.00002870
0.206864,0.00001723
0.207864,-0.00001490
0.208864,0.00000822
0.209864,-0.00000949
0.210864,0.00003187
0.211864,0.00002353
0.212864,-0.00006957
0.213864,0.00000613
0.214864,-0.00002864
0.215864,-0.00001631
0.216864,-0.00001054
0.217864,-0.00007823
0.218864,-0.00000330
0.219864,-0.00002914
0.220864,0.00003606
0.221864,0.00001918
0.222864,0.00003488
0.223864,-0.00001576
0.224864,0.00002051
0.225864,-0.00001485
0.226864,0.00004563
0.227864,0.00000369
0.228864,-0.00001495
0.229864,-0.00001256
0.230864,0.00002597
0.231864,-0.00002439
0.232864,0.00001181
0.233864,0.00000468
0.234864,0.00000358
0.235864,-0.00001602
0.236864,-0.00000337
0.237864,-0.00001657
0.238864,0.00003252
0.239864,0.00002105
0.240864,0.00000113
0.241864,-0.00002674
0.242864,-0.00002703
0.243864,-0.00000134
0.244864,0.00001947
0.245864,-0.00000476
0.246864,-0.00001268
0.247864,-0.00002541
0.248864,-0.00007144
0.249864,0.00005103
0.250864,-0.00005126
0.251864,-0.00000715
0.252864,0.00000451
0.253864,-0.00003726
0.254864,-0.00003858
0.255864,-0.00000775
0.256864,-0.00002850
0.257864,-0.00003069
0.258864,-0.00003141
0.259864,0.00003395
0.260864,0.00002257
0.261864,-0.00001207
0.262864,0.00001155
0.263864,-0.00000614
0.264864,-0.00003013
0.265864,-0.00002312
0.266864,0.00002440
0.267864,0.00003207
0.268864,-0.00003441
0.269864,0.00001757
0.270864,0.00001689
0.271864,0.00004254
0.272864,-0.00001803
0.273864,-0.00005441
0.274864,0.00000078
0.275864,-0.00000845
0.276864,0.00000130
0.209785,-0.00001376
0.210785,0.00002970
0.211785,-0.00000176
0.212785,-0.00001523
0.213785,-0.00000881
0.214785,0.00000474
0.215785,-0.00001449
0.216785,-0.00005866
0.217785,-0.00001194
0.218785,-0.00000372
0.219785,-0.00001210
0.220785,0.00003971
0.221785,-0.00000714
0.222785,0.00001300
0.223785,-0.00000517
0.224785,-0.00001102
0.225785,0.00003118
0.226785,0.00001010
0.227785,0.00004949
0.228785,0.00006156
0.229785,0.00001667
0.230785,-0.00004134
0.231785,-0.00002223
0.232785,0.00005404
0.233785,0.00004636
0.234785,0.00000201
0.235785,-0.00003435
0.236785,-0.00007966
0.237785,0.00002450
0.238785,0.00003866
0.239785,0.00002060
0.240785,-0.00001519
0.241785,-0.00001988
0.242785,-0.00004665
0.243785,0.00002335
0.244785,0.00001423
0.245785,0.00000572
0.246785,-0.00005358
0.247785,-0.00000535
0.248785,0.00001657
0.249785,0.00002321
0.250785,0.00002601
0.251785,0.00002223
0.252785,-0.00000291
0.253785,0.00002270
0.254785,0.00001590
0.255785,0.00002172
0.256785,0.00007701
0.257785,0.00006082
0.258785,0.00011333
0.259785,0.00013975
0.260785,0.00013597
0.261785,0.00018107
0.262785,0.00024199
0.263785,0.00034169
0.264785,0.00042257
0.265785,0.00044078
0.266785,0.00054986
0.267785,0.00066700
0.268785,0.00073984
0.269785,0.00083215
0.270785,0.00093011
0.271785,0.00094984
0.272785,0.00106161
0.273785,0.00113462
0.274785,0.00118213
0.275785,0.00121116
0.276785,0.00117754
0.277785,0.00120772
0.278785,0.00111370
0.279785,0.00103674
0.280785,0.00101928
0.281785,0.00087948
0.282785,0.00077899
0.283785,0.00073154
0.284785,0.00061371
0.285785,0.00049133
0.286785,0.00040405
0.287785,0.00027400
0.288785,0.00024866
0.289785,0.00016072
0.290785,0.00012379
0.291785,0.00001212
0.292785,-0.00006465
0.293785,-0.00014594
0.294785,-0.00012122
0.295785,-0.00016018
0.296785,-0.00018011
0.297785,-0.00024328
0.298785,-0.00023141
0.299785,-0.00025054
0.300785,-0.00027053
0.301785,-0.00025211
0.302785,-0.00028735
0.303785,-0.00024842
0.304785,-0.00027529
0.305785,-0.00025618
0.306785,-0.00022894
0.307785,-0.00018397
0.308785,-0.00022636
0.241284,-0.00018244
0.242284,-0.00019206
0.243284,-0.00023847
0.244284,-0.00014664
0.245284,-0.00015172
0.246284,-0.00011443
0.247284,-0.00005524
0.248284,-0.00007607
0.249284,-0.00008805
0.250284,-0.00002068
0.251284,-0.00008316
0.252284,0.00004046
0.253284,-0.00002569
0.254284,-0.00003480
0.255284,0.00005846
0.256284,0.00002937
0.257284,-0.00000014
0.258284,0.00004874
0.259284,0.00005136
0.260284,0.00000609
0.261284,0.00004458
0.262284,0.00001439
0.263284,0.00003950
0.264284,0.00001740
0.265284,0.00004451
0.266284,-0.00000635
0.267284,0.00005625
0.268284,0.00004050
0.269284,0.00002626
0.270284,0.00005286
0.271284,0.00004386
0.272284,0.00005991
0.273284,0.00009441
0.274284,0.00006255
0.275284,0.00004695
0.276284,0.00003830
0.277284,0.00003729
0.278284,0.00002617
0.279284,0.00004391
0.280284,0.00008372
0.281284,0.00007876
0.282284,0.00011088
0.283284,0.00008882
0.284284,0.00012165
0.285284,0.00009568
0.286284,0.00004405
0.287284,0.00018158
0.288284,0.00007611
0.289284,0.00006129
0.290284,0.00007717
0.291284,0.00011835
0.292284,0.00008220
0.293284,0.00007689
0.294284,0.00011198
0.295284,0.00016421
0.296284,0.00014392
0.297284,0.00009476
0.298284,0.00015638
0.299284,0.00015668
0.300284,0.00013739
0.301284,0.00008753
0.302284,0.00015622
0.303284,0.00015085
0.304284,0.00018346
0.305284,0.00011743
0.306284,0.00011326
0.307284,0.00019959
0.308284,0.00017396
0.309284,0.00013102
0.310284,0.00015986
0.311284,0.00016542
0.312284,0.00014874
0.313284,0.00018073
0.314284,0.00019569
0.315284,0.00012732
0.316284,0.00021553
0.317284,0.00017662
0.318284,0.00017213
0.319284,0.00020324
0.320284,0.00013064
0.321284,0.00023037
0.322284,0.00018197
0.323284,0.00021463
0.324284,0.00016572
0.325284,0.00021019
0.326284,0.00025970
0.327284,0.00023751
0.328284,0.00026647
0.329284,0.00021707
0.330284,0.00016742
0.331284,0.00028041
0.332284,0.00022591
0.333284,0.00020629
0.334284,0.00023460
0.335284,0.00019870
0.336284,0.00024388
0.337284,0.00019852
0.338284,0.00021866
0.339284,0.00020509
0.340284,0.00020892
0.273233,0.00021814
0.274233,0.00023237
0.275233,0.00023355
0.276233,0.00018687
0.277233,0.00021075
0.278233,0.00025690
0.279233,0.00027414
0.280233,0.00019950
0.281233,0.00022451
0.282233,0.00022731
0.283233,0.00021326
0.284233,0.00022695
0.285233,0.00023256
0.286233,0.00015471
0.287233,0.00021288
0.288233,0.00025233
0.289233,0.00023622
0.290233,0.00025379
0.291233,0.00025193
0.292233,0.00014058
0.293233,0.00017073
0.294233,0.00027122
0.295233,0.00021048
0.296233,0.00015093
0.297233,0.00018125
0.298233,0.00017162
0.299233,0.00019230
0.300233,0.00020770
0.301233,0.00019748
0.302233,0.00018067
0.303233,0.00016033
0.304233,0.00018905
0.305233,0.00010466
0.306233,0.00012081
0.307233,0.00019880
0.308233,0.00016628
0.309233,0.00014086
0.310233,0.00017505
0.311233,0.00017133
0.312233,0.00011936
0.313233,0.00012126
0.314233,0.00016800
0.315233,0.00012906
0.316233,0.00015369
0.317233,0.00015762
0.318233,0.00013191
0.319233,0.00012010
0.320233,0.00010349
0.321233,0.00013632
0.322233,0.00009755
0.323233,0.00011343
0.324233,0.00002503
0.325233,0.00013917
0.326233,0.00009098
0.327233,0.00010003
0.328233,0.00008903
0.329233,0.00007688
0.330233,0.00004660
0.331233,0.00006242
0.332233,0.00009583
0.333233,0.00008771
0.334233,0.00008454
0.335233,0.00006332
0.336233,0.00009286
0.337233,0.00011025
0.338233,0.00010225
0.339233,0.00008311
0.340233,0.00009459
0.341233,0.00005479
0.342233,0.00001993
0.343233,0.00005232
0.344233,0.00005472
0.345233,0.00005194
0.346233,0.00004907
0.347233,0.00005312
0.348233,0.00001653
0.349233,0.00004652
0.350233,0.00004589
0.351233,0.00006999
0.352233,0.00008687
0.353233,0.00006446
0.354233,-0.00002715
0.355233,0.00006735
0.356233,0.00005494
0.357233,0.00004209
0.358233,0.00005221
0.359233,0.00002483
0.360233,0.00008547
0.361233,-0.00000301
0.362233,0.00002233
0.363233,0.00001345
0.364233,0.00003992
0.365233,0.00001878
0.366233,0.00001244
0.367233,0.00003849
0.368233,0.00000587
0.369233,0.00004253
0.370233,0.00003423
0.371233,0.00000121
0.372233,-0.00003788
0.304454,0.00004648
0.305454,0.00001981
0.306454,-0.00001909
0.307454,0.00003829
0.308454,0.00000728
0.309454,0.00001501
0.310454,0.00001537
0.311454,-0.00001646
0.312454,-0.00000904
0.313454,-0.00001306
0.314454,-0.00000750
0.315454,0.00003560
0.316454,-0.00003158
0.317454,0.00000050
0.318454,-0.00005797
0.319454,0.00004760
0.320454,0.00002153
0.321454,0.00001711
0.322454,-0.00003482
0.323454,-0.00001094
0.324454,0.00001141
0.325454,0.00003153
0.326454,0.00003482
0.327454,0.00001564
0.328454,0.00003472
0.329454,0.00000069
0.330454,0.00001300
0.331454,-0.00000443
0.332454,-0.00000537
0.333454,0.00002471
0.334454,-0.00001962
0.335454,0.00001463
0.336454,0.00003058
0.337454,-0.00002361
0.338454,-0.00001126
0.339454,-0.00003161
0.340454,0.00002567
0.341454,0.00000737
0.342454,-0.00000396
0.343454,-0.00004188
0.344454,-0.00005688
0.345454,0.00002327
0.346454,0.00000409
0.347454,-0.00001047
0.348454,-0.00005515
0.349454,0.00000670
0.350454,0.00001924
0.351454,0.00002720
0.352454,-0.00002016
0.353454,0.00006047
0.354454,-0.00003567
0.355454,-0.00005857
0.356454,0.00003862
0.357454,-0.00007512
0.358454,-0.00004743
0.359454,-0.00000457
0.360454,-0.00001197
0.361454,0.00004408
0.362454,-0.00004821
0.363454,0.00000906
0.364454,0.00002046
0.365454,-0.00006203
0.366454,0.00003051
0.367454,0.00001022
0.368454,0.00004254
0.369454,-0.00000335
0.370454,0.00000572
0.371454,-0.00001372
0.372454,-0.00001710
0.373454,-0.00002790
0.374454,-0.00001794
0.375454,0.00001712
0.376454,0.00006737
0.377454,-0.00005775
0.378454,0.00000159
0.379454,0.00003474
0.380454,0.00003064
0.381454,0.00004990
0.382454,0.00001911
0.383454,0.00003466
0.384454,0.00000733
0.385454,0.00002737
0.386454,-0.00003596
0.387454,0.00003165
0.388454,-0.00001544
0.389454,-0.00000182
0.390454,0.00002063
0.391454,0.00002624
0.392454,0.00001643
0.393454,0.00003826
0.394454,-0.00002583
0.395454,0.00005326
0.396454,0.00000558
0.397454,-0.00000749
0.398454,-0.00004728
0.399454,0.00003237
0.400454,0.00001106
0.401454,0.00004643
0.402454,-0.00002441
0.403454,0.00002989
0.335746,0.00001290
0.336746,-0.00002525
0.337746,-0.00001854
0.338746,-0.00001677
0.339746,-0.00000120
0.340746,0.00002228
0.341746,-0.00000907
0.342746,0.00000637
0.343746,0.00003353
0.344746,0.00000731
0.345746,-0.00003094
0.346746,-0.00008240
0.347746,-0.00001427
0.348746,0.00000092
0.349746,-0.00002945
0.350746,0.00002551
0.351746,-0.00000614
0.352746,0.00000426
0.353746,0.00003683
0.354746,-0.00005837
0.355746,0.00001910
0.356746,0.00002785
0.357746,-0.00002392
0.358746,0.00001633
0.359746,0.00005229
0.360746,0.00005151
0.361746,-0.00002641
0.362746,-0.00001464
0.363746,-0.00003279
0.364746,-0.00000251
0.365746,-0.00004719
0.366746,-0.00000288
0.367746,-0.00000883
0.368746,0.00001622
0.369746,-0.00003370
0.370746,0.00002769
0.371746,0.00002191
0.372746,0.00002035
0.373746,-0.00001753
0.374746,0.00002471
0.375746,0.00000486
0.376746,-0.00000750
0.377746,0.00001910
0.378746,-0.00000631
0.379746,0.00005208
0.380746,0.00001524
0.381746,-0.00000886
0.382746,0.00000345
0.383746,-0.00001840
0.384746,-0.00002129
0.385746,-0.00005795
0.386746,0.00005646
0.387746,0.00001592
0.388746,0.00003816
0.389746,0.00001757
0.390746,-0.00000346
0.391746,0.00002291
0.392746,0.00006577
0.393746,0.00003241
0.394746,-0.00000109
0.395746,-0.00002357
0.396746,-0.00000283
0.397746,0.00001280
0.398746,-0.00000836
0.399746,-0.00000578
0.400746,-0.00001568
0.401746,0.00000949
0.402746,0.00002281
0.403746,-0.00000685
0.404746,0.00002243
0.405746,-0.00006528
0.406746,0.00001212
0.407746,0.00003312
0.408746,0.00001362
0.409746,-0.00003159
0.410746,-0.00001241
0.411746,0.00000684
0.412746,-0.00001611
0.413746,-0.00000873
0.414746,0.00002620
0.415746,0.00000331
0.416746,0.00001970
0.417746,0.00001130
0.418746,0.00000503
0.419746,0.00008348
0.420746,0.00001180
0.421746,0.00002884
0.422746,0.00001782
0.423746,0.00004066
0.424746,-0.00004180
0.425746,-0.00005743
0.426746,-0.00001238
0.427746,0.00002301
0.428746,0.00000331
0.429746,0.00005746
0.430746,-0.00001930
0.431746,-0.00006382
0.432746,0.00001245
0.433746,-0.00000202
0.434746,-0.00003244
0.367369,-0.00000456
0.368369,0.00004627
0.369369,-0.00002056
0.370369,-0.00003320
0.371369,0.00001996
0.372369,0.00000082
0.373369,0.00000842
0.374369,-0.00003624
0.375369,0.00003270
0.376369,-0.00002839
0.377369,-0.00004000
0.378369,-0.00001879
0.379369,0.00001184
0.380369,0.00004771
0.381369,-0.00006779
0.382369,-0.00002713
0.383369,0.00000218
0.384369,-0.00000341
0.385369,0.00000964
0.386369,-0.00006063
0.387369,-0.00000512
0.388369,-0.00002942
0.389369,-0.00001726
0.390369,0.00000826
0.391369,0.00002416
0.392369,0.00001419
0.393369,-0.00006123
0.394369,0.00001362
0.395369,0.00000964
0.396369,0.00001642
0.397369,-0.00001102
0.398369,-0.00004502
0.399369,0.00003303
0.400369,-0.00001243
0.401369,-0.00004150
0.402369,-0.00002272
0.403369,0.00004689
0.404369,0.00001643
0.405369,-0.00002200
0.406369,0.00000571
0.407369,0.00005103
0.408369,-0.00003372
0.409369,0.00001411
0.410369,-0.00002060
0.411369,-0.00002029
0.412369,0.00001691
0.413369,-0.00000516
0.414369,-0.00004280
0.415369,-0.00001786
0.416369,-0.00002799
0.417369,0.00003336
0.418369,-0.00002977
0.419369,0.00002481
0.420369,-0.00001723
0.421369,0.00002318
0.422369,-0.00004995
0.423369,-0.00003501
0.424369,-0.00002536
0.425369,0.00009744
0.426369,-0.00003671
0.427369,-0.00001442
0.428369,0.00001020
0.429369,0.00003693
0.430369,0.00004366
0.431369,-0.00004676
0.432369,-0.00002275
0.433369,-0.00000641
0.434369,0.00005482
0.435369,0.00000976
0.436369,-0.00001510
0.437369,0.00002166
0.438369,0.00001554
0.439369,0.00002928
0.440369,-0.00002403
0.441369,-0.00002315
0.442369,0.00004239
0.443369,0.00001942
0.444369,0.00004584
0.445369,-0.00001161
0.446369,0.00002798
0.447369,0.00001379
0.448369,-0.00001872
0.449369,-0.00002470
0.450369,0.00001637
0.451369,0.00007472
0.452369,-0.00006910
0.453369,-0.00001054
0.454369,-0.00003801
0.455369,0.00001706
0.456369,0.00001675
0.457369,-0.00000851
0.458369,0.00001153
0.459369,0.00004497
0.460369,0.00001047
0.461369,-0.00007912
0.462369,-0.00004991
0.463369,0.00000765
0.464369,-0.00001888
0.465369,0.00003080
0.466369,0.00001614
0.398786,0.00000940
0.399786,-0.00004444
0.400786,0.00000034
0.401786,0.00003445
0.402786,-0.00000635
0.403786,0.00001891
0.404786,-0.00000528
0.405786,0.00003986
0.406786,0.00006722
0.407786,-0.00000018
0.408786,-0.00000766
0.409786,-0.00002853
0.410786,-0.00000814
0.411786,0.00003142
0.412786,0.00001665
0.413786,0.00002473
0.414786,0.00002826
0.415786,-0.00000362
0.416786,0.00001401
0.417786,0.00003601
0.418786,0.00000282
0.419786,0.00005747
0.420786,0.00001400
0.421786,-0.00000157
0.422786,0.00000365
0.423786,0.00002791
0.424786,0.00001235
0.425786,0.00005965
0.426786,-0.00002346
0.427786,-0.00003804
0.428786,-0.00000088
0.429786,0.00005800
0.430786,0.00002872
0.431786,-0.00000945
0.432786,-0.00000481
0.433786,0.00000118
0.434786,-0.00002331
0.435786,0.00001754
0.436786,0.00000985
0.437786,0.00003667
0.438786,0.00006805
0.439786,0.00001942
0.440786,0.00003590
0.441786,0.00001000
0.442786,0.00002742
0.443786,-0.00001828
0.444786,0.00000850
0.445786,0.00004779
0.446786,0.00006314
0.447786,0.00002620
0.448786,0.00008694
0.449786,0.00003577
0.450786,0.00003674
0.451786,0.00002296
0.452786,0.00001148
0.453786,0.00009070
0.454786,0.00000797
0.455786,0.00004387
0.456786,0.00009265
0.457786,0.00004909
0.458786,0.00002958
0.459786,-0.00000335
0.460786,0.00003250
0.461786,0.00004842
0.462786,0.00007655
0.463786,0.00009393
0.464786,0.00003166
0.465786,0.00002940
0.466786,0.00005452
0.467786,0.00009643
0.468786,0.00005004
0.469786,0.00005388
0.470786,0.00006390
0.471786,0.00011165
0.472786,0.00009918
0.473786,0.00007822
0.474786,0.00011091
0.475786,0.00009071
0.476786,0.00008127
0.477786,0.00009838
0.478786,0.00010648
0.479786,0.00004889
0.480786,0.00009482
0.481786,0.00004985
0.482786,0.00007081
0.483786,0.00008113
0.484786,0.00012127
0.485786,0.00011992
0.486786,0.00007589
0.487786,0.00014438
0.488786,0.00008666
0.489786,0.00007374
0.490786,0.00006017
0.491786,0.00009069
0.492786,0.00010634
0.493786,0.00005820
0.494786,0.00004781
0.495786,0.00004423
0.496786,0.00010014
0.497786,0.00008312
0.430278,0.00010750
0.431278,0.00007740
0.432278,0.00004764
0.433278,0.00002855
0.434278,0.00010588
0.435278,0.00007809
0.436278,0.00005254
0.437278,0.00008105
0.438278,0.00008169
0.439278,0.00007093
0.440278,0.00002110
0.441278,0.00012185
0.442278,0.00006048
0.443278,0.00007409
0.444278,0.00005048
0.445278,0.00007026
0.446278,0.00001776
0.447278,0.00006240
0.448278,-0.00000540
0.449278,0.00001150
0.450278,0.00002932
0.451278,0.00004035
0.452278,0.00001191
0.453278,0.00000683
0.454278,0.00005070
0.455278,0.00003575
0.456278,0.00006070
0.457278,0.00007610
0.458278,0.00002264
0.459278,0.00003488
0.460278,0.00003657
0.461278,-0.00001236
0.462278,-0.00001184
0.463278,0.00001970
0.464278,0.00003051
0.465278,0.00003727
0.466278,0.00001901
0.467278,0.00006155
0.468278,0.00000547
0.469278,0.00006248
0.470278,0.00002825
0.471278,0.00003891
0.472278,0.00001432
0.473278,0.00005279
0.474278,0.00001180
0.475278,0.00002889
0.476278,0.00001962
0.477278,-0.00002294
0.478278,-0.00001221
0.479278,0.00004112
0.480278,0.00002379
0.481278,-0.00002162
0.482278,-0.00000944
0.483278,-0.00004463
0.484278,0.00001694
0.485278,0.00004266
0.486278,-0.00003591
0.487278,-0.00001280
0.488278,0.00002263
0.489278,0.00004512
0.490278,-0.00000630
0.491278,0.00002431
0.492278,0.00003598
0.493278,-0.00000951
0.494278,0.00001090
0.495278,0.00002125
0.496278,0.00000714
0.497278,-0.00002777
0.498278,-0.00002350
0.499278,-0.00002062
0.500278,0.00003708
0.501278,0.00002145
0.502278,0.00003336
0.503278,0.00000295
0.504278,-0.00000329
0.505278,-0.00000106
0.506278,-0.00002636
0.507278,-0.00001685
0.508278,0.00001566
0.509278,0.00002622
0.510278,0.00002333
0.511278,0.00004139
0.512278,-0.00000696
0.513278,0.00003379
0.514278,-0.00000256
0.515278,0.00003908
0.516278,-0.00002122
0.517278,0.00002542
0.518278,0.00000046
0.519278,0.00004682
0.520278,-0.00002584
0.521278,0.00000390
0.522278,0.00000780
0.523278,-0.00001220
0.524278,-0.00001697
0.525278,-0.00002433
0.526278,-0.00000448
0.527278,-0.00002745
0.528278,0.00000276
0.529278,0.00004627
0.451273,0.00000365
0.452273,-0.00003785
0.453273,0.00003333
0.454273,-0.00000300
0.455273,0.00001697
0.456273,0.00000448
0.457273,-0.00000760
0.458273,-0.00000630
0.459273,-0.00002296
0.460273,0.00001135
0.461273,0.00002487
0.462273,-0.00000444
0.463273,-0.00002437
0.464273,-0.00000910
0.465273,-0.00001340
0.466273,-0.00002406
0.467273,0.00001961
0.468273,0.00001962
0.469273,0.00003615
0.470273,-0.00002930
0.471273,0.00001004
0.472273,0.00001658
0.473273,0.00006016
0.474273,-0.00002782
0.475273,-0.00000211
0.476273,0.00003454
0.477273,-0.00000025
0.478273,0.00000852
0.479273,0.00003326
0.480273,0.00003489
0.481273,0.00003579
0.482273,0.00001341
0.483273,-0.00003343
0.484273,0.00004418
0.485273,0.00004919
0.486273,0.00001308
0.487273,0.00001634
0.488273,-0.00000379
0.489273,0.00000172
0.490273,-0.00001971
0.491273,0.00001347
0.492273,0.00004000
0.493273,0.00003898
0.494273,0.00004065
0.495273,-0.00002096
0.496273,0.00000956
0.497273,-0.00003477
0.498273,0.00002087
0.499273,-0.00000157
0.500273,-0.00001101
0.501273,-0.00000404
0.502273,-0.00000621
0.503273,0.00000854
0.504273,0.00002993
0.505273,0.00000266
0.506273,-0.00002638
0.507273,0.00001530
0.508273,0.00000826
0.509273,0.00002447
0.510273,0.00000729
0.511273,0.00001143
0.512273,0.00000026
0.513273,0.00000420
0.514273,-0.00004043
0.515273,-0.00002830
0.516273,0.00000965
0.517273,0.00001176
0.518273,-0.00002895
0.519273,-0.00006832
0.520273,-0.00000664
0.521273,-0.00002134
0.522273,-0.00001327
0.523273,0.00000844
0.524273,0.00001422
0.525273,0.00000512
0.526273,-0.00001820
0.527273,-0.00005073
0.528273,0.00001817
0.529273,0.00006139
0.530273,0.00006122
0.531273,0.00004109
0.532273,0.00006705
0.533273,0.00011685
0.534273,0.00013729
0.535273,0.00016527
0.536273,0.00024657
0.537273,0.00023240
0.538273,0.00028713
0.539273,0.00039389
0.540273,0.00044424
0.541273,0.00049905
0.542273,0.00063172
0.543273,0.00068901
0.544273,0.00084629
0.545273,0.00090001
0.546273,0.00099086
0.547273,0.00104465
0.548273,0.00111517
0.549273,0.00114893
0.550273,0.00117296
0.482568,0.00119490
0.483568,0.00122062
0.484568,0.00114226
0.485568,0.00110137
0.486568,0.00102202
0.487568,0.00093767
0.488568,0.00081688
0.489568,0.00069442
0.490568,0.00070465
0.491568,0.00054320
0.492568,0.00040448
0.493568,0.00031593
0.494568,0.00020618
0.495568,0.00012113
0.496568,0.00014115
0.497568,0.00003839
0.498568,-0.00004898
0.499568,-0.00006617
0.500568,-0.00016585
0.501568,-0.00016978
0.502568,-0.00018254
0.503568,-0.00026699
0.504568,-0.00019564
0.505568,-0.00022286
0.506568,-0.00023490
0.507568,-0.00029279
0.508568,-0.00026169
0.509568,-0.00027753
0.510568,-0.00025333
0.511568,-0.00023961
0.512568,-0.00025271
0.513568,-0.00020018
0.514568,-0.00014452
0.515568,-0.00019261
0.516568,-0.00021545
0.517568,-0.00017052
0.518568,-0.00012726
0.519568,-0.00017152
0.520568,-0.00009291
0.521568,-0.00010120
0.522568,-0.00007200
0.523568,-0.00005357
0.524568,-0.00006395
0.525568,-0.00003173
0.526568,0.00001996
0.527568,-0.00002964
0.528568,0.00001954
0.529568,-0.00001904
0.530568,-0.00000538
0.531568,0.00000841
0.532568,0.00000780
0.533568,0.00002279
0.534568,0.00004444
0.535568,0.00004558
0.536568,0.00001244
0.537568,0.00004194
0.538568,0.00006499
0.539568,0.00003070
0.540568,0.00001539
0.541568,0.00004016
0.542568,0.00003944
0.543568,0.00003121
0.544568,0.00011217
0.545568,0.00011072
0.546568,0.00005353
0.547568,0.00005776
0.548568,0.00006761
0.549568,0.00008753
0.550568,0.00006303
0.551568,0.00004379
0.552568,0.00008180
0.553568,0.00007967
0.554568,0.00007105
0.555568,0.00008807
0.556568,0.00008573
0.557568,0.00006951
0.558568,0.00008155
0.559568,0.00015891
0.560568,0.00007903
0.561568,0.00004333
0.562568,0.00011939
0.563568,0.00010565
0.564568,0.00011293
0.565568,0.00013871
0.566568,0.00008707
0.567568,0.00010840
0.568568,0.00010731
0.569568,0.00011138
0.570568,0.00014855
0.571568,0.00008510
0.572568,0.00012429
0.573568,0.00012334
0.574568,0.00013109
0.575568,0.00012886
0.576568,0.00011306
0.577568,0.00017087
0.578568,0.00014067
0.579568,0.00012445
0.580568,0.00020269
0.581568,0.00014861
0.522685,0.00018925
0.523685,0.00018603
0.524685,0.00011100
0.525685,0.00018881
0.526685,0.00021269
0.527685,0.00016892
0.528685,0.00025393
0.529685,0.00015645
0.530685,0.00013909
0.531685,0.00018774
0.532685,0.00015175
0.533685,0.00018759
0.534685,0.00016287
0.535685,0.00021150
0.536685,0.00014224
0.537685,0.00023968
0.538685,0.00014693
0.539685,0.00017363
0.540685,0.00020365
0.541685,0.00024104
0.542685,0.00019751
0.543685,0.00019389
0.544685,0.00020541
0.545685,0.00019543
0.546685,0.00024717
0.547685,0.00026065
0.548685,0.00020151
0.549685,0.00023279
0.550685,0.00028620
0.551685,0.00019647
0.552685,0.00022446
0.553685,0.00024265
0.554685,0.00020890
0.555685,0.00023306
0.556685,0.00021186
0.557685,0.00024022
0.558685,0.00022004
0.559685,0.00021025
0.560685,0.00021133
0.561685,0.00020733
0.562685,0.00023031
0.563685,0.00021311
0.564685,0.00021045
0.565685,0.00022436
0.566685,0.00023210
0.567685,0.00018077
0.568685,0.00021301
0.569685,0.00020013
0.570685,0.00017856
0.571685,0.00021703
0.572685,0.00020140
0.573685,0.00017187
0.574685,0.00020488
0.575685,0.00024025
0.576685,0.00020110
0.577685,0.00015148
0.578685,0.00020485
0.579685,0.00014347
0.580685,0.00017270
0.581685,0.00019918
0.582685,0.00012151
0.583685,0.00018574
0.584685,0.00017912
0.585685,0.00017527
0.586685,0.00015772
0.587685,0.00019403
0.588685,0.00014898
0.589685,0.00015057
0.590685,0.00016383
0.591685,0.00014831
0.592685,0.00012188
0.593685,0.00016402
0.594685,0.00018180
0.595685,0.00010776
0.596685,0.00019882
0.597685,0.00013778
0.598685,0.00014980
0.599685,0.00009212
0.600685,0.00011658
0.601685,0.00013088
0.602685,0.00008781
0.603685,0.00007218
0.604685,0.00013866
0.605685,0.00013103
0.606685,0.00010843
0.607685,0.00008253
0.608685,0.00007641
0.609685,0.00009482
0.610685,0.00004451
0.611685,0.00013369
0.612685,0.00002712
0.613685,0.00005469
0.614685,0.00009776
0.615685,0.00006724
0.616685,0.00014742
0.617685,0.00011027
0.618685,0.00001961
0.619685,0.00002747
0.620685,0.00006641
0.621685,0.00005548
0.550140,0.00004138
0.551140,0.00003992
0.552140,0.00004859
0.553140,0.00006528
0.554140,0.00000240
0.555140,0.00003758
0.556140,0.00004658
0.557140,0.00004333
0.558140,0.00002112
0.559140,0.00009819
0.560140,0.00004227
0.561140,0.00001614
0.562140,0.00005499
0.563140,0.00000879
0.564140,0.00003530
0.565140,0.00003592
0.566140,0.00002097
0.567140,0.00005667
0.568140,0.00005725
0.569140,-0.00002331
0.570140,0.00003403
0.571140,0.00003362
0.572140,-0.00000179
0.573140,0.00001497
0.574140,0.00003626
0.575140,-0.00000004
0.576140,-0.00003476
0.577140,0.00002927
0.578140,-0.00000894
0.579140,0.00002054
0.580140,-0.00001679
0.581140,0.00002921
0.582140,0.00001255
0.583140,0.00000134
0.584140,-0.00003881
0.585140,0.00001476
0.586140,0.00002742
0.587140,0.00002663
0.588140,0.00003755
0.589140,0.00006795
0.590140,-0.00002959
0.591140,0.00002101
0.592140,-0.00001858
0.593140,0.00000959
0.594140,0.00003386
0.595140,-0.00002519
0.596140,0.00001966
0.597140,0.00001578
0.598140,-0.00003150
0.599140,0.00004014
0.600140,0.00005892
0.601140,0.00005845
0.602140,0.00007817
0.603140,0.00001783
0.604140,-0.00002358
0.605140,-0.00001278
0.606140,-0.00001304
0.607140,-0.00000217
0.608140,0.00001346
0.609140,0.00005575
0.610140,-0.00002861
0.611140,0.00000204
0.612140,0.00000289
0.613140,0.00004640
0.614140,-0.00000219
0.615140,-0.00002514
0.616140,0.00000375
0.617140,0.00000828
0.618140,-0.00005159
0.619140,0.00000334
0.620140,-0.00000971
0.621140,0.00002898
0.622140,0.00000963
0.623140,-0.00001455
0.624140,-0.00000225
0.625140,0.00000153
0.626140,0.00000709
0.627140,-0.00000240
0.628140,-0.00002187
0.629140,0.00000246
0.630140,0.00000621
0.631140,0.00001943
0.632140,-0.00000015
0.633140,-0.00000446
0.634140,0.00005066
0.635140,0.00003430
0.636140,0.00001469
0.637140,-0.00003386
0.638140,-0.00001294
0.639140,-0.00004993
0.640140,0.00000749
0.641140,-0.00007531
0.642140,-0.00002200
0.643140,0.00000617
0.644140,-0.00004229
0.645140,-0.00003922
0.646140,-0.00003279
0.647140,0.00002074
0.648140,-0.00004339
0.649140,-0.00001352
0.583563,0.00001541
0.584563,0.00002872
0.585563,-0.00000213
0.586563,-0.00003141
0.587563,-0.00001368
0.588563,-0.00000117
0.589563,0.00003819
0.590563,-0.00000848
0.591563,-0.00003257
0.592563,-0.00000138
0.593563,-0.00000920
0.594563,-0.00001611
0.595563,-0.00001682
0.596563,0.00002475
0.597563,-0.00007551
0.598563,-0.00003369
0.599563,0.00001941
0.600563,0.00000125
0.601563,-0.00001966
0.602563,0.00001716
0.603563,-0.00004328
0.604563,-0.00001241
0.605563,0.00004346
0.606563,-0.00000317
0.607563,-0.00001292
0.608563,0.00004769
0.609563,0.00000144
0.610563,-0.00003855
0.611563,-0.00005017
0.612563,0.00003025
0.613563,0.00002261
0.614563,-0.00004034
0.615563,-0.00002277
0.616563,-0.00001199
0.617563,-0.00005771
0.618563,-0.00002280
0.619563,0.00003111
0.620563,-0.00002198
0.621563,0.00000668
0.622563,-0.00000828
0.623563,-0.00004909
0.624563,-0.00002746
0.625563,-0.00000846
0.626563,0.00001600
0.627563,-0.00007561
0.628563,-0.00002352
0.629563,0.00004453
0.630563,-0.00001262
0.631563,-0.00001049
0.632563,0.00000471
0.633563,0.00003583
0.634563,-0.00003751
0.635563,-0.00002344
0.636563,0.00000699
0.637563,-0.00000083
0.638563,0.00003198
0.639563,-0.00003903
0.640563,0.00006329
0.641563,-0.00000898
0.642563,-0.00000413
0.643563,-0.00001680
0.644563,-0.00005382
0.645563,-0.00001048
0.646563,-0.00001228
0.647563,0.00003431
0.648563,-0.00008272
0.649563,0.00003731
0.650563,0.00000084
0.651563,0.00003176
0.652563,-0.00000038
0.653563,0.00000349
0.654563,-0.00002928
0.655563,-0.00001999
0.656563,0.00002294
0.657563,0.00005073
0.658563,0.00002718
0.659563,-0.00001891
0.660563,0.00003616
0.661563,0.00001350
0.662563,0.00004148
0.663563,-0.00005285
0.664563,0.00003094
0.665563,0.00000165
0.666563,-0.00000661
0.667563,-0.00000312
0.668563,0.00000395
0.669563,-0.00000981
0.670563,-0.00003101
0.671563,0.00003523
0.672563,0.00003660
0.673563,0.00006904
0.674563,0.00002255
0.675563,0.00000748
0.676563,0.00001562
0.677563,0.00000428
0.678563,-0.00001451
0.679563,-0.00006211
0.680563,-0.00002854
0.681563,0.00003407
0.682563,0.00002382
0.616794,0.00003935
0.617794,-0.00001687
0.618794,0.00000185
0.619794,-0.00000527
0.620794,0.00003174
0.621794,0.00001575
0.622794,-0.00000325
0.623794,-0.00002127
0.624794,-0.00000205
0.625794,-0.00002286
0.626794,-0.00000914
0.627794,0.00001945
0.628794,-0.00005488
0.629794,0.00006208
0.630794,-0.00001550
0.631794,0.00007065
0.632794,-0.00001593
0.633794,-0.00000800
0.634794,0.00001334
0.635794,-0.00002310
0.636794,0.00001925
0.637794,-0.00004048
0.638794,0.00001400
0.639794,-0.00000942
0.640794,0.00004401
0.641794,0.00002831
0.642794,0.00003711
0.643794,0.00003976
0.644794,-0.00004138
0.645794,0.00005446
0.646794,-0.00000112
0.647794,-0.00002431
0.648794,0.00001522
0.649794,0.00003528
0.650794,-0.00004821
0.651794,-0.00000882
0.652794,0.00004051
0.653794,0.00000005
0.654794,0.00001755
0.655794,0.00002349
0.656794,0.00005872
0.657794,0.00001076
0.658794,-0.00004289
0.659794,0.00000629
0.660794,-0.00000642
0.661794,-0.00001708
0.662794,0.00003177
0.663794,0.00001853
0.664794,0.00001263
0.665794,0.00000471
0.666794,-0.00002465
0.667794,0.00003904
0.668794,0.00001251
0.669794,0.00004898
0.670794,-0.00006677
0.671794,0.00000962
0.672794,-0.00002563
0.673794,-0.00002714
0.674794,-0.00002435
0.675794,-0.00001297
0.676794,0.00003444
0.677794,-0.00006085
0.678794,0.00001295
0.679794,-0.00002665
0.680794,-0.00006415
0.681794,0.00001948
0.682794,0.00000525
0.683794,-0.00001696
0.684794,-0.00000765
0.685794,0.00000400
0.686794,0.00003009
0.687794,-0.00002503
0.688794,0.00003308
0.689794,-0.00005046
0.690794,0.00004360
0.691794,0.00009056
0.692794,-0.00000579
0.693794,-0.00000049
0.694794,-0.00001361
0.695794,0.00005036
0.696794,0.00000039
0.697794,-0.00004472
0.698794,-0.00003968
0.699794,-0.00009216
0.700794,-0.00001768
0.701794,0.00002648
0.702794,-0.00000329
0.703794,-0.00003243
0.704794,0.00000536
0.705794,0.00002372
0.706794,-0.00000078
0.707794,-0.00003739
0.708794,-0.00003822
0.709794,0.00000559
0.710794,-0.00000479
0.711794,0.00001844
0.712794,0.00002160
0.713794,0.00000416
0.714794,0.00002627
0.715794,-0.00002351
0.640502,0.00002155
0.641502,-0.00006433
0.642502,-0.00003739
0.643502,0.00004520
0.644502,0.00001708
0.645502,0.00001309
0.646502,0.00005611
0.647502,-0.00001071
0.648502,0.00000242
0.649502,0.00005402
0.650502,-0.00002160
0.651502,0.00000414
0.652502,0.00002743
0.653502,0.00001698
0.654502,-0.00000735
0.655502,-0.00000936
0.656502,-0.00005354
0.657502,0.00001803
0.658502,0.00001297
0.659502,-0.00003276
0.660502,-0.00003161
0.661502,-0.00002096
0.662502,0.00000006
0.663502,0.00002045
0.664502,0.00001460
0.665502,-0.00002710
0.666502,-0.00000025
0.667502,0.00000050
0.668502,0.00003728
0.669502,-0.00007251
0.670502,0.00000800
0.671502,-0.00000843
0.672502,-0.00003794
0.673502,-0.00000752
0.674502,0.00005424
0.675502,-0.00001634
0.676502,-0.00002954
0.677502,0.00002160
0.678502,-0.00003961
0.679502,0.00001661
0.680502,-0.00007235
0.681502,-0.00001480
0.682502,0.00006447
0.683502,-0.00000582
0.684502,0.00001146
0.685502,-0.00002074
0.686502,0.00001849
0.687502,-0.00002897
0.688502,0.00004720
0.689502,-0.00002786
0.690502,0.00003308
0.691502,0.00000574
0.692502,0.00006942
0.693502,-0.00001637
0.694502,0.00001518
0.695502,0.00002128
0.696502,0.00004930
0.697502,-0.00001087
0.698502,0.00001467
0.699502,0.00004472
0.700502,-0.00001729
0.701502,-0.00001114
0.702502,0.00010566
0.703502,-0.00004390
0.704502,0.00001381
0.705502,0.00005820
0.706502,0.00000569
0.707502,0.00003018
0.708502,0.00005409
0.709502,-0.00000486
0.710502,-0.00000426
0.711502,0.00002095
0.712502,0.00003205
0.713502,0.00005968
0.714502,0.00001390
0.715502,0.00003535
0.716502,0.00002183
0.717502,0.00008212
0.718502,0.00003662
0.719502,0.00003616
0.720502,-0.00000094
0.721502,0.00002914
0.722502,0.00006544
0.723502,0.00006236
0.724502,0.00005306
0.725502,0.00005475
0.726502,0.00007366
0.727502,0.00003342
0.728502,0.00005389
0.729502,0.00005906
0.730502,0.00003471
0.731502,0.00005137
0.732502,0.00000622
0.733502,0.00006723
0.734502,0.00010146
0.735502,0.00006263
0.736502,0.00006089
0.737502,0.00002908
0.738502,0.00011049
0.739502,0.00013125
0.674781,0.00003382
0.675781,0.00007844
0.676781,0.00006183
0.677781,0.00010677
0.678781,0.00007083
0.679781,0.00008450
0.680781,0.00007408
0.681781,0.00011147
0.682781,0.00005024
0.683781,0.00003529
0.684781,0.00010580
0.685781,0.00004890
0.686781,0.00011949
0.687781,0.00012742
0.688781,0.00007130
0.689781,0.00004858
0.690781,0.00006673
0.691781,0.00002026
0.692781,0.00009084
0.693781,0.00008187
0.694781,0.00012529
0.695781,0.00008838
0.696781,0.00008576
0.697781,0.00010669
0.698781,0.00004554
0.699781,0.00008207
0.700781,0.00002425
0.701781,0.00008792
0.702781,0.00007664
0.703781,0.00003717
0.704781,0.00005644
0.705781,0.00003098
0.706781,0.00012599
0.707781,0.00007197
0.708781,0.00003063
0.709781,0.00001746
0.710781,0.00005817
0.711781,0.00007672
0.712781,0.00003471
0.713781,0.00008539
0.714781,0.00009843
0.715781,0.00002299
0.716781,0.00007776
0.717781,0.00002873
0.718781,0.00006379
0.719781,0.00005432
0.720781,-0.00004578
0.721781,-0.00002343
0.722781,0.00003944
0.723781,0.00006372
0.724781,0.00004111
0.725781,0.00004008
0.726781,-0.00001061
0.727781,0.00003260
0.728781,0.00003971
0.729781,0.00003485
0.730781,0.00001058
0.731781,-0.00002132
0.732781,0.00003162
0.733781,0.00002599
0.734781,0.00001694
0.735781,0.00003707
0.736781,0.00003476
0.737781,0.00009427
0.738781,-0.00002322
0.739781,0.00001798
0.740781,0.00000035
0.741781,0.00003013
0.742781,0.00001410
0.743781,0.00001293
0.744781,0.00001858
0.745781,0.00003530
0.746781,0.00004444
0.747781,-0.00000821
0.748781,0.00004129
0.749781,-0.00000329
0.750781,0.00002193
0.751781,-0.00000099
0.752781,0.00002270
0.753781,0.00001631
0.754781,0.00005143
0.755781,0.00002941
0.756781,0.00000019
0.757781,-0.00000353
0.758781,-0.00002839
0.759781,0.00000469
0.760781,-0.00000785
0.761781,0.00000740
0.762781,0.00002592
0.763781,-0.00000803
0.764781,0.00002328
0.765781,-0.00001648
0.766781,0.00000063
0.767781,-0.00005706
0.768781,0.00001301
0.769781,0.00001217
0.770781,-0.00003455
0.771781,-0.00001498
0.772781,-0.00000835
0.773781,-0.00001317
0.708279,0.00001095
0.709279,0.00000755
0.710279,-0.00005115
0.711279,0.00001658
0.712279,0.00003877
0.713279,0.00000476
0.714279,0.00001510
0.715279,-0.00003079
0.716279,0.00001392
0.717279,-0.00003157
0.718279,-0.00001317
0.719279,0.00006767
0.720279,-0.00001933
0.721279,-0.00001164
0.722279,-0.00000441
0.723279,0.00001088
0.724279,0.00002806
0.725279,0.00000455
0.726279,-0.00001704
0.727279,-0.00008139
0.728279,-0.00004682
0.729279,0.00001740
0.730279,-0.00002150
0.731279,-0.00000094
0.732279,0.00001859
0.733279,-0.00003687
0.734279,-0.00003318
0.735279,-0.00001669
0.736279,0.00002757
0.737279,0.00000931
0.738279,-0.00002335
0.739279,-0.00003602
0.740279,-0.00004569
0.741279,-0.00001527
0.742279,0.00000063
0.743279,0.00005404
0.744279,0.00001811
0.745279,-0.00002039
0.746279,-0.00002560
0.747279,-0.00004629
0.748279,0.00000491
0.749279,-0.00000726
0.750279,-0.00002614
0.751279,-0.00003557
0.752279,-0.00002525
0.753279,-0.00002140
0.754279,-0.00003760
0.755279,-0.00001127
0.756279,0.00003963
0.757279,-0.00000159
0.758279,0.00000471
0.759279,0.00001713
0.760279,-0.00003552
0.761279,0.00006455
0.762279,0.00001625
0.763279,0.00002294
0.764279,-0.00003277
0.765279,-0.00000125
0.766279,-0.00006822
0.767279,0.00004404
0.768279,-0.00001671
0.769279,0.00004683
0.770279,0.00001598
0.771279,0.00005905
0.772279,-0.00000804
0.773279,-0.00001671
0.774279,-0.00001927
0.775279,0.00000621
0.776279,0.00003123
0.777279,0.00000139
0.778279,-0.00000143
0.779279,-0.00001239
0.780279,-0.00000631
0.781279,0.00004619
0.782279,-0.00002852
0.783279,0.00002799
0.784279,0.00003437
0.785279,0.00000967
0.786279,-0.00004003
0.787279,0.00001683
0.788279,-0.00005188
0.789279,0.00000486
0.790279,0.00000485
0.791279,0.00007634
0.792279,0.00000891
0.793279,0.00000419
0.794279,0.00003960
0.795279,-0.00005804
0.796279,-0.00004424
0.797279,0.00000057
0.798279,-0.00000298
0.799279,-0.00006871
0.800279,0.00001215
0.801279,0.00000087
0.802279,0.00001651
0.803279,0.00003903
0.804279,0.00006358
0.805279,0.00001541
0.806279,-0.00002258
0.807279,0.00000413
0.731699,-0.00000617
0.732699,0.00003324
0.733699,-0.00004387
0.734699,0.00001425
0.735699,-0.00002518
0.736699,-0.00003204
0.737699,0.00000845
0.738699,0.00000284
0.739699,0.00003716
0.740699,0.00001760
0.741699,0.00002579
0.742699,0.00000919
0.743699,0.00003538
0.744699,0.00004777
0.745699,0.00007317
0.746699,0.00000081
0.747699,0.00014345
0.748699,0.00013719
0.749699,0.00022747
0.750699,0.00024807
0.751699,0.00035109
0.752699,0.00035532
0.753699,0.00044307
0.754699,0.00050984
0.755699,0.00060193
0.756699,0.00072792
0.757699,0.00083798
0.758699,0.00086756
0.759699,0.00098564
0.760699,0.00107470
0.761699,0.00106472
0.762699,0.00115776
0.763699,0.00120784
0.764699,0.00120308
0.765699,0.00120159
0.766699,0.00109817
0.767699,0.00111048
0.768699,0.00104005
0.769699,0.00102773
0.770699,0.00090702
0.771699,0.00080967
0.772699,0.00066747
0.773699,0.00056294
0.774699,0.00048442
0.775699,0.00036188
0.776699,0.00030929
0.777699,0.00018764
0.778699,0.00012109
0.779699,0.00006048
0.780699,-0.00004921
0.781699,-0.00006036
0.782699,-0.00009409
0.783699,-0.00013296
0.784699,-0.00017758
0.785699,-0.00025557
0.786699,-0.00020833
0.787699,-0.00017796
0.788699,-0.00026975
0.789699,-0.00023576
0.790699,-0.00028825
0.791699,-0.00019038
0.792699,-0.00024844
0.793699,-0.00023014
0.794699,-0.00023969
0.795699,-0.00023832
0.796699,-0.00021571
0.797699,-0.00017018
0.798699,-0.00019933
0.799699,-0.00022081
0.800699,-0.00017136
0.801699,-0.00013653
0.802699,-0.00012356
0.803699,-0.00009679
0.804699,-0.00009564
0.805699,-0.00005697
0.806699,-0.00003003
0.807699,-0.00004693
0.808699,-0.00003996
0.809699,0.00000484
0.810699,-0.00000301
0.811699,-0.00004607
0.812699,0.00000851
0.813699,0.00001467
0.814699,0.00001853
0.815699,-0.00005278
0.816699,0.00005346
0.817699,0.00000488
0.818699,0.00003534
0.819699,0.00002688
0.820699,0.00002661
0.821699,0.00007246
0.822699,0.00003951
0.823699,0.00009349
0.824699,0.00007183
0.825699,0.00008522
0.826699,0.00005110
0.827699,0.00005951
0.828699,0.00005160
0.829699,-0.00003666
0.830699,0.00011095
0.760959,0.00008523
0.761959,0.00006348
0.762959,0.00009433
0.763959,0.00007213
0.764959,0.00006975
0.765959,0.00008006
0.766959,0.00009641
0.767959,0.00005320
0.768959,0.00007551
0.769959,0.00012236
0.770959,0.00007208
0.771959,0.00010804
0.772959,0.00013055
0.773959,0.00009912
0.774959,0.00007776
0.775959,0.00009671
0.776959,0.00005236
0.777959,0.00013120
0.778959,0.00015818
0.779959,0.00008341
0.780959,0.00007551
0.781959,0.00010871
0.782959,0.00010877
0.783959,0.00014527
0.784959,0.00008710
0.785959,0.00016553
0.786959,0.00008707
0.787959,0.00012334
0.788959,0.00016419
0.789959,0.00018282
0.790959,0.00017017
0.791959,0.00015246
0.792959,0.00015278
0.793959,0.00018105
0.794959,0.00017999
0.795959,0.00011751
0.796959,0.00020475
0.797959,0.00016001
0.798959,0.00017393
0.799959,0.00013750
0.800959,0.00016972
0.801959,0.00013846
0.802959,0.00015464
0.803959,0.00017383
0.804959,0.00019097
0.805959,0.00016561
0.806959,0.00017637
0.807959,0.00021587
0.808959,0.00019968
0.809959,0.00019410
0.810959,0.00015652
0.811959,0.00024418
0.812959,0.00020301
0.813959,0.00017457
0.814959,0.00022859
0.815959,0.00024993
0.816959,0.00020325
0.817959,0.00021212
0.818959,0.00026879
0.819959,0.00019025
0.820959,0.00022206
0.821959,0.00026846
0.822959,0.00024648
0.823959,0.00021496
0.824959,0.00015167
0.825959,0.00021678
0.826959,0.00018417
0.827959,0.00022121
0.828959,0.00027839
0.829959,0.00024300
0.830959,0.00025774
0.831959,0.00019109
0.832959,0.00021185
0.833959,0.00022563
0.834959,0.00018530
0.835959,0.00023413
0.836959,0.00017500
0.837959,0.00024068
0.838959,0.00015908
0.839959,0.00025677
0.840959,0.00024763
0.841959,0.00023068
0.842959,0.00021862
0.843959,0.00022788
0.844959,0.00020659
0.845959,0.00022651
0.846959,0.00021674
0.847959,0.00022621
0.848959,0.00019050
0.849959,0.00023853
0.850959,0.00020607
0.851959,0.00020545
0.852959,0.00015263
0.853959,0.00019592
0.854959,0.00017043
0.855959,0.00016140
0.856959,0.00019990
0.857959,0.00018504
0.858959,0.00010705
0.859959,0.00012809
0.793753,0.00012780
0.794753,0.00016080
0.795753,0.00014357
0.796753,0.00016449
0.797753,0.00012728
0.798753,0.00013506
0.799753,0.00016035
0.800753,0.00017688
0.801753,0.00014211
0.802753,0.00018643
0.803753,0.00015021
0.804753,0.00011925
0.805753,0.00012878
0.806753,0.00017961
0.807753,0.00009330
0.808753,0.00008776
0.809753,0.00010712
0.810753,0.00011415
0.811753,0.00009210
0.812753,0.00016270
0.813753,0.00009677
0.814753,0.00006887
0.815753,0.00007857
0.816753,0.00010049
0.817753,0.00010780
0.818753,0.00006550
0.819753,0.00005408
0.820753,0.00009034
0.821753,0.00005947
0.822753,0.00008960
0.823753,0.00004742
0.824753,0.00001866
0.825753,0.00003335
0.826753,0.00004695
0.827753,0.00005679
0.828753,0.00003823
0.829753,0.00004981
0.830753,0.00002832
0.831753,0.00004694
0.832753,0.00004315
0.833753,0.00004229
0.834753,0.00005860
0.835753,0.00004046
0.836753,0.00005135
0.837753,0.00002188
0.838753,0.00001348
0.839753,-0.00001587
0.840753,0.00007302
0.841753,0.00000067
0.842753,-0.00001301
0.843753,0.00004563
0.844753,-0.00002418
0.845753,0.00001875
0.846753,0.00001095
0.847753,0.00003509
0.848753,0.00003144
0.849753,0.00000158
0.850753,0.00004230
0.851753,0.00008352
0.852753,0.00002765
0.853753,0.00002767
0.854753,0.00001947
0.855753,0.00005052
0.856753,-0.00000559
0.857753,0.00002979
0.858753,0.00000307
0.859753,0.00002051
0.860753,0.00000799
0.861753,-0.00001394
0.862753,0.00000896
0.863753,0.00002216
0.864753,0.00001908
0.865753,0.00003098
0.866753,-0.00004291
0.867753,0.00001853
0.868753,0.00008069
0.869753,0.00006419
0.870753,-0.00003738
0.871753,0.00001140
0.872753,0.00001263
0.873753,-0.00001853
0.874753,-0.00002234
0.875753,0.00010552
0.876753,-0.00001394
0.877753,-0.00002535
0.878753,0.00002550
0.879753,0.00004015
0.880753,0.00003594
0.881753,-0.00003059
0.882753,0.00000195
0.883753,0.00004721
0.884753,0.00005936
0.885753,0.00001799
0.886753,-0.00000078
0.887753,-0.00002266
0.888753,0.00000833
0.889753,-0.00002796
0.890753,-0.00001571
0.891753,-0.00003300
0.892753,-0.00000772
0.826307,0.00007044
0.827307,-0.00000919
0.828307,-0.00000041
0.829307,0.00002700
0.830307,0.00005050
0.831307,0.00000081
0.832307,0.00003540
0.833307,0.00000071
0.834307,0.00000609
0.835307,-0.00000869
0.836307,0.00001570
0.837307,0.00003236
0.838307,0.00001528
0.839307,-0.00000811
0.840307,0.00001936
0.841307,-0.00003261
0.842307,0.00001523
0.843307,0.00001933
0.844307,-0.00001231
0.845307,-0.00000752
0.846307,0.00002825
0.847307,-0.00001451
0.848307,-0.00003796
0.849307,0.00003391
0.850307,0.00003418
0.851307,-0.00001413
0.852307,-0.00000770
0.853307,0.00000712
0.854307,-0.00000944
0.855307,0.00001871
0.856307,0.00002821
0.857307,0.00000614
0.858307,0.00001796
0.859307,0.00001598
0.860307,-0.00000466
0.861307,-0.00001106
0.862307,0.00004746
0.863307,-0.00000132
0.864307,-0.00002066
0.865307,-0.00000564
0.866307,0.00000782
0.867307,-0.00000858
0.868307,-0.00003196
0.869307,-0.00001983
0.870307,0.00000874
0.871307,-0.00001601
0.872307,0.00006016
0.873307,0.00000401
0.874307,0.00000986
0.875307,-0.00000040
0.876307,0.00003710
0.877307,-0.00001173
0.878307,-0.00001344
0.879307,0.00002551
0.880307,0.00000268
0.881307,0.00008136
0.882307,0.00001340
0.883307,0.00002738
0.884307,0.00003336
0.885307,-0.00005089
0.886307,0.00001041
0.887307,0.00000754
0.888307,0.00002930
0.889307,0.00001121
0.890307,-0.00001164
0.891307,0.00004222
0.892307,0.00002425
0.893307,-0.00002942
0.894307,0.00002294
0.895307,0.00004073
0.896307,-0.00001959
0.897307,0.00002189
0.898307,0.00000561
0.899307,-0.00001193
0.900307,-0.00004238
0.901307,-0.00003235
0.902307,-0.00002399
0.903307,-0.00003591
0.904307,-0.00002219
0.905307,-0.00000138
0.906307,0.00004570
0.907307,-0.00000116
0.908307,0.00001407
0.909307,0.00004438
0.910307,0.00001821
0.911307,-0.00003126
0.912307,0.00005465
0.913307,0.00004791
0.914307,0.00004495
0.915307,0.00000672
0.916307,-0.00004066
0.917307,0.00000561
0.918307,-0.00000448
0.919307,0.00003114
0.920307,-0.00000501
0.921307,-0.00003338
0.922307,-0.00001135
0.923307,0.00000087
0.924307,0.00001695
0.925307,0.00003830
0.860188,0.00003100
0.861188,-0.00003441
0.862188,-0.00002357
0.863188,0.00002161
0.864188,-0.00001646
0.865188,-0.00002764
0.866188,0.00005580
0.867188,0.00003998
0.868188,0.00000199
0.869188,-0.00000270
0.870188,-0.00000753
0.871188,0.00000391
0.872188,0.00000326
0.873188,0.00002361
0.874188,-0.00000085
0.875188,-0.00010636
0.876188,0.00005616
0.877188,-0.00001903
0.878188,-0.00002218
0.879188,0.00000352
0.880188,-0.00003178
0.881188,-0.00005499
0.882188,-0.00002673
0.883188,-0.00000113
0.884188,0.00000947
0.885188,-0.00000203
0.886188,-0.00001815
0.887188,0.00005011
0.888188,0.00002828
0.889188,-0.00003881
0.890188,-0.00003269
0.891188,0.00000370
0.892188,0.00002381
0.893188,0.00000532
0.894188,0.00005900
0.895188,0.00004537
0.896188,-0.00000675
0.897188,0.00000543
0.898188,0.00002547
0.899188,0.00001294
0.900188,0.00002144
0.901188,0.00001792
0.902188,-0.00006911
0.903188,-0.00000576
0.904188,0.00002379
0.905188,-0.00006592
0.906188,-0.00000112
0.907188,0.00003210
0.908188,0.00000166
0.909188,-0.00002708
0.910188,-0.00000842
0.911188,-0.00000675
0.912188,-0.00002988
0.913188,-0.00002186
0.914188,-0.00001066
0.915188,-0.00002150
0.916188,0.00007808
0.917188,0.00000927
0.918188,0.00001642
0.919188,-0.00000742
0.920188,-0.00000118
0.921188,-0.00004597
0.922188,0.00002415
0.923188,-0.00004783
0.924188,0.00002477
0.925188,0.00001665
0.926188,-0.00000063
0.927188,-0.00000015
0.928188,0.00001502
0.929188,0.00000317
0.930188,-0.00001877
0.931188,-0.00003260
0.932188,0.00001556
0.933188,-0.00004848
0.934188,-0.00000360
0.935188,-0.00000530
0.936188,0.00002411
0.937188,-0.00002144
0.938188,-0.00000160
0.939188,-0.00000043
0.940188,-0.00003369
0.941188,0.00004180
0.942188,0.00002113
0.943188,-0.00003567
0.944188,0.00000243
0.945188,0.00001175
0.946188,-0.00000483
0.947188,-0.00003889
0.948188,-0.00000687
0.949188,-0.00000761
0.950188,-0.00007219
0.951188,-0.00000173
0.952188,-0.00005696
0.953188,0.00000474
0.954188,-0.00002872
0.955188,-0.00006210
0.956188,-0.00004352
0.957188,-0.00001792
0.958188,-0.00000961
0.959188,-0.00000788
0.891257,-0.00003150
0.892257,0.00000136
0.893257,-0.00004881
0.894257,-0.00002703
0.895257,0.00001184
0.896257,0.00002165
0.897257,-0.00001215
0.898257,-0.00000423
0.899257,0.00004071
0.900257,0.00002721
0.901257,-0.00000419
0.902257,-0.00000248
0.903257,0.00003823
0.904257,-0.00002772
0.905257,0.00001991
0.906257,-0.00002579
0.907257,-0.00005804
0.908257,0.00003503
0.909257,-0.00002246
0.910257,0.00000766
0.911257,-0.00002421
0.912257,0.00006080
0.913257,0.00002043
0.914257,0.00003511
0.915257,0.00001247
0.916257,-0.00002549
0.917257,-0.00000515
0.918257,0.00000463
0.919257,0.00002914
0.920257,0.00000359
0.921257,-0.00001613
0.922257,0.00002095
0.923257,-0.00001854
0.924257,0.00004121
0.925257,-0.00000036
0.926257,-0.00001011
0.927257,-0.00001830
0.928257,0.00001408
0.929257,-0.00001829
0.930257,0.00001576
0.931257,-0.00004548
0.932257,-0.00003782
0.933257,0.00003941
0.934257,0.00002377
0.935257,0.00000015
0.936257,0.00002232
0.937257,0.00001188
0.938257,0.00003044
0.939257,-0.00003132
0.940257,-0.00000980
0.941257,-0.00000214
0.942257,0.00002723
0.943257,-0.00000914
0.944257,-0.00001379
0.945257,0.00001604
0.946257,0.00000538
0.947257,-0.00000968
0.948257,0.00002107
0.949257,-0.00003908
0.950257,0.00000188
0.951257,0.00004567
0.952257,-0.00003318
0.953257,0.00001410
0.954257,0.00006840
0.955257,0.00003529
0.956257,0.00003195
0.957257,0.00006808
0.958257,0.00006496
0.959257,0.00003019
0.960257,0.00000087
0.961257,0.00002542
0.962257,-0.00002835
0.963257,-0.00001618
0.964257,-0.00003410
0.965257,-0.00001344
0.966257,0.00001458
0.967257,0.00002000
0.968257,0.00004469
0.969257,-0.00000280
0.970257,-0.00000545
0.971257,-0.00000256
0.972257,0.00001654
0.973257,-0.00002725
0.974257,0.00005098
0.975257,-0.00001040
0.976257,-0.00004743
0.977257,-0.00000925
0.978257,0.00004915
0.979257,-0.00003820
0.980257,0.00005279
0.981257,0.00002321
0.982257,0.00000296
0.983257,0.00001870
0.984257,-0.00002063
0.985257,0.00001164
0.986257,-0.00001699
0.987257,0.00003683
0.988257,0.00000181
0.989257,0.00000528
0.990257,-0.00005311
0.933390,0.00012496
0.934390,0.00000548
0.935390,0.00006767
0.936390,0.00010023
0.937390,0.00005386
0.938390,0.00003360
0.939390,0.00005938
0.940390,0.00004422
0.941390,0.00002471
0.942390,0.00004032
0.943390,0.00001145
0.944390,0.00002822
0.945390,0.00008224
0.946390,0.00004960
0.947390,0.00011982
0.948390,0.00009329
0.949390,0.00002872
0.950390,0.00007058
0.951390,0.00008556
0.952390,0.00000797
0.953390,-0.00001027
0.954390,0.00001095
0.955390,0.00008830
0.956390,0.00009388
0.957390,0.00001936
0.958390,0.00002036
0.959390,0.00002396
0.960390,0.00009619
0.961390,0.00006343
0.962390,0.00008065
0.963390,0.00010073
0.964390,0.00003577
0.965390,0.00008803
0.966390,0.00006861
0.967390,0.00009529
0.968390,0.00011978
0.969390,0.00006993
0.970390,0.00006350
0.971390,0.00008439
0.972390,0.00002685
0.973390,0.00014265
0.974390,0.00006032
0.975390,0.00010844
0.976390,0.00002123
0.977390,0.00009473
0.978390,0.00008545
0.979390,0.00007337
0.980390,0.00006749
0.981390,0.00007115
0.982390,0.00004808
0.983390,0.00002425
0.984390,0.00009492
0.985390,0.00005035
0.986390,0.00007265
0.987390,0.00001164
0.988390,0.00000363
0.989390,0.00005965
0.990390,0.00007594
0.991390,0.00008326
0.992390,0.00004857
0.993390,0.00005365
0.994390,0.00006343
0.995390,0.00002267
0.996390,0.00008274
0.997390,0.00006064
0.998390,0.00010919
0.999390,0.00009475
1.000390,0.00007266
1.001390,0.00008766
1.002390,0.00000437
1.003390,0.00008019
1.004390,0.00008747
1.005390,0.00009177
1.006390,0.00006107
1.007390,0.00001925
1.008390,0.00009217
1.009390,0.00004877
1.010390,0.00009826
1.011390,0.00009275
1.012390,-0.00000251
1.013390,0.00006578
1.014390,0.00002162
1.015390,0.00005785
1.016390,0.00004331
1.017390,0.00008073
1.018390,0.00003718
1.019390,0.00003912
1.020390,0.00007353
1.021390,0.00002932
1.022390,0.00002199
1.023390,0.00003861
1.024390,0.00007157
1.025390,0.00006926
1.026390,-0.00003655
1.027390,0.00003897
1.028390,0.00001233
1.029390,0.00002154
1.030390,0.00005665
1.031390,0.00002586
1.032390,0.00002522
0.966862,0.00005681
0.967862,0.00002796
0.968862,0.00001687
0.969862,0.00002765
0.970862,0.00000263
0.971862,-0.00001623
0.972862,0.00001875
0.973862,0.00008640
0.974862,0.00000533
0.975862,0.00007009
0.976862,-0.00002216
0.977862,-0.00003307
0.978862,0.00000398
0.979862,-0.00002011
0.980862,0.00000535
0.981862,0.00005107
0.982862,0.00002753
0.983862,0.00000362
0.984862,0.00000424
0.985862,0.00003722
0.986862,-0.00000952
0.987862,0.00002756
0.988862,0.00003042
0.989862,0.00006456
0.990862,0.00002934
0.991862,0.00000916
0.992862,0.00004254
0.993862,-0.00003690
0.994862,0.00004989
0.995862,-0.00005152
0.996862,0.00002472
0.997862,-0.00003877
0.998862,0.00003057
0.999862,0.00000432
1.000862,0.00002360
1.001862,0.00000300
1.002862,0.00000964
1.003862,0.00003059
1.004862,0.00000453
1.005862,-0.00000271
1.006862,0.00004128
1.007862,-0.00003747
1.008862,-0.00000888
1.009862,0.00000927
1.010862,0.00002816
1.011862,-0.00004115
1.012862,0.00005504
1.013862,-0.00001413
1.014862,0.00002206
1.015862,-0.00005319
1.016862,0.00001035
1.017862,0.00002402
1.018862,0.00002371
1.019862,0.00001302
1.020862,0.00003606
1.021862,0.00000535
1.022862,-0.00000686
1.023862,-0.00002214
1.024862,0.00000685
1.025862,-0.00002645
1.026862,-0.00003457
1.027862,-0.00000083
1.028862,-0.00004677
1.029862,-0.00004729
1.030862,-0.00001624
1.031862,-0.00000358
1.032862,0.00000809
1.033862,-0.00000822
1.034862,0.00000064
1.035862,-0.00001926
1.036862,-0.00000042
1.037862,0.00000273
1.038862,-0.00002783
1.039862,-0.00006198
1.040862,0.00002882
1.041862,-0.00000335
1.042862,0.00001400
1.043862,-0.00000492
1.044862,-0.00000680
1.045862,-0.00005673
1.046862,0.00001897
1.047862,0.00007644
1.048862,-0.00001956
1.049862,-0.00000070
1.050862,0.00002010
1.051862,0.00002375
1.052862,0.00000145
1.053862,-0.00000152
1.054862,-0.00004454
1.055862,-0.00003828
1.056862,-0.00000905
1.057862,0.00003147
1.058862,0.00000082
1.059862,-0.00002343
1.060862,-0.00000525
1.061862,-0.00003337
1.062862,-0.00005557
1.063862,-0.00000021
1.064862,-0.00001587
1.065862,0.00003499
0.999978,-0.00007944
1.000978,-0.00003641
1.001978,0.00003310
1.002978,-0.00005408
1.003978,0.00002009
1.004978,-0.00010120
1.005978,-0.00000247
1.006978,-0.00004278
1.007978,0.00000021
1.008978,0.00002632
1.009978,-0.00004562
1.010978,0.00005021
1.011978,-0.00002779
1.012978,0.00005196
1.013978,-0.00004983
1.014978,-0.00002580
1.015978,0.00000058
1.016978,0.00006819
1.017978,-0.00001714
1.018978,-0.00000802
1.019978,-0.00003443
1.020978,-0.00001553
1.021978,0.00001789
1.022978,-0.00003299
1.023978,-0.00004536
1.024978,0.00001167
1.025978,-0.00000840
1.026978,0.00004491
1.027978,-0.00002099
1.028978,0.00001771
1.029978,-0.00005544
1.030978,-0.00001881
1.031978,-0.00001912
1.032978,0.00000505
1.033978,-0.00000218
1.034978,-0.00001472
1.035978,0.00000940
1.036978,0.00001293
1.037978,-0.00005232
1.038978,0.00001219
1.039978,-0.00000944
1.040978,-0.00004455
1.041978,-0.00000640
1.042978,0.00000144
1.043978,-0.00003309
1.044978,-0.00000324
1.045978,0.00000638
1.046978,0.00004592
1.047978,0.00005151
1.048978,0.00012910
1.049978,0.00012946
1.050978,0.00018111
1.051978,0.00024152
1.052978,0.00028007
1.053978,0.00030635
1.054978,0.00041422
1.055978,0.00047077
1.056978,0.00052668
1.057978,0.00067377
1.058978,0.00077388
1.059978,0.00084328
1.060978,0.00096827
1.061978,0.00099919
1.062978,0.00108138
1.063978,0.00112838
1.064978,0.00114315
1.065978,0.00116495
1.066978,0.00117272
1.067978,0.00118332
1.068978,0.00109239
1.069978,0.00105099
1.070978,0.00104199
1.071978,0.00094067
1.072978,0.00083043
1.073978,0.00069799
1.074978,0.00060013
1.075978,0.00050469
1.076978,0.00040182
1.077978,0.00036478
1.078978,0.00022884
1.079978,0.00012809
1.080978,0.00007251
1.081978,0.00000603
1.082978,-0.00006504
1.083978,-0.00010498
1.084978,-0.00013923
1.085978,-0.00012017
1.086978,-0.00027492
1.087978,-0.00019942
1.088978,-0.00026105
1.089978,-0.00024381
1.090978,-0.00028582
1.091978,-0.00021082
1.092978,-0.00028523
1.093978,-0.00027301
1.094978,-0.00022012
1.095978,-0.00026718
1.096978,-0.00023361
1.097978,-0.00016918
1.098978,-0.00022686
1.033382,-0.00025339
1.034382,-0.00013548
1.035382,-0.00016988
1.036382,-0.00013538
1.037382,-0.00011675
1.038382,-0.00008214
1.039382,-0.00011621
1.040382,-0.00001193
1.041382,-0.00008948
1.042382,-0.00007257
1.043382,-0.00002906
1.044382,-0.00005259
1.045382,-0.00003621
1.046382,-0.00005591
1.047382,-0.00000971
1.048382,0.00004891
1.049382,0.00003245
1.050382,-0.00000321
1.051382,0.00005098
1.052382,0.00004053
1.053382,0.00003676
1.054382,0.00002079
1.055382,0.00007497
1.056382,0.00003932
1.057382,0.00004324
1.058382,0.00009270
1.059382,0.00010359
1.060382,-0.00002231
1.061382,0.00003766
1.062382,0.00002924
1.063382,0.00006706
1.064382,0.00004005
1.065382,0.00008595
1.066382,0.00006694
1.067382,0.00010055
1.068382,0.00008750
1.069382,0.00006862
1.070382,0.00004440
1.071382,0.00010687
1.072382,0.00001405
1.073382,0.00007603
1.074382,0.00006468
1.075382,0.00009187
1.076382,0.00005828
1.077382,0.00007585
1.078382,0.00015861
1.079382,0.00008767
1.080382,0.00011521
1.081382,0.00008693
1.082382,0.00011591
1.083382,0.00015427
1.084382,0.00014921
1.085382,0.00010935
1.086382,0.00011422
1.087382,0.00012751
1.088382,0.00013655
1.089382,0.00008862
1.090382,0.00015304
1.091382,0.00012244
1.092382,0.00014270
1.093382,0.00012580
1.094382,0.00014898
1.095382,0.00016214
1.096382,0.00013649
1.097382,0.00015451
1.098382,0.00013991
1.099382,0.00016439
1.100382,0.00019455
1.101382,0.00015801
1.102382,0.00018857
1.103382,0.00019340
1.104382,0.00017578
1.105382,0.00019805
1.106382,0.00016991
1.107382,0.00017074
1.108382,0.00018038
1.109382,0.00017145
1.110382,0.00019764
1.111382,0.00019186
1.112382,0.00020390
1.113382,0.00020849
1.114382,0.00018646
1.115382,0.00023972
1.116382,0.00019133
1.117382,0.00022589
1.118382,0.00020308
1.119382,0.00015167
1.120382,0.00014871
1.121382,0.00020646
1.122382,0.00025851
1.123382,0.00022473
1.124382,0.00019379
1.125382,0.00022558
1.126382,0.00020002
1.127382,0.00022296
1.128382,0.00020120
1.129382,0.00017791
1.130382,0.00018084
1.131382,0.00017989
1.132382,0.00020073
1.059886,0.00016793
1.060886,0.00026118
1.061886,0.00019515
1.062886,0.00022655
1.063886,0.00022745
1.064886,0.00021607
1.065886,0.00018527
1.066886,0.00028086
1.067886,0.00018498
1.068886,0.00021254
1.069886,0.00022559
1.070886,0.00014872
1.071886,0.00017538
1.072886,0.00022017
1.073886,0.00019406
1.074886,0.00015063
1.075886,0.00022922
1.076886,0.00022280
1.077886,0.00020064
1.078886,0.00021679
1.079886,0.00020888
1.080886,0.00017067
1.081886,0.00017901
1.082886,0.00012480
1.083886,0.00020867
1.084886,0.00013610
1.085886,0.00021193
1.086886,0.00018675
1.087886,0.00017097
1.088886,0.00017787
1.089886,0.00019199
1.090886,0.00017466
1.091886,0.00021450
1.092886,0.00011014
1.093886,0.00012075
1.094886,0.00017157
1.095886,0.00018454
1.096886,0.00010559
1.097886,0.00015532
1.098886,0.00013478
1.099886,0.00011854
1.100886,0.00015679
1.101886,0.00009730
1.102886,0.00013143
1.103886,0.00014006
1.104886,0.00010379
1.105886,0.00018140
1.106886,0.00007051
1.107886,0.00010674
1.108886,0.00009657
1.109886,0.00009364
1.110886,0.00004570
1.111886,0.00007413
1.112886,0.00010636
1.113886,0.00013629
1.114886,0.00007685
1.115886,0.00006621
1.116886,0.00007409
1.117886,0.00006301
1.118886,0.00009492
1.119886,0.00009012
1.120886,0.00002766
1.121886,0.00002973
1.122886,0.00008163
1.123886,0.00004862
1.124886,0.00005841
1.125886,0.00008821
1.126886,0.00005043
1.127886,0.00006240
1.128886,0.00004512
1.129886,0.00004631
1.130886,0.00004804
1.131886,0.00004743
1.132886,0.00003846
1.133886,0.00004783
1.134886,0.00004516
1.135886,0.00008704
1.136886,0.00007454
1.137886,0.00006440
1.138886,0.00007719
1.139886,0.00006227
1.140886,0.00005610
1.141886,-0.00000232
1.142886,0.00000955
1.143886,0.00000564
1.144886,0.00003190
1.145886,-0.00001316
1.146886,0.00005139
1.147886,0.00008263
1.148886,-0.00002625
1.149886,-0.00001060
1.150886,0.00001809
1.151886,0.00000812
1.152886,0.00001212
1.153886,-0.00000528
1.154886,-0.00003078
1.155886,0.00006043
1.156886,-0.00003345
1.157886,0.00000986
1.158886,0.00000584
1.091438,-0.00000388
1.092438,0.00001672
1.093438,-0.00004643
1.094438,0.00001048
1.095438,-0.00002164
1.096438,0.00005485
1.097438,-0.00000660
1.098438,-0.00006570
1.099438,0.00004173
1.100438,-0.00002561
1.101438,-0.00001767
1.102438,-0.00002917
1.103438,-0.00000751
1.104438,-0.00000727
1.105438,0.00006823
1.106438,0.00004370
1.107438,0.00002559
1.108438,-0.00003073
1.109438,-0.00001952
1.110438,0.00002004
1.111438,0.00002863
1.112438,0.00000392
1.113438,0.00000397
1.114438,0.00003599
1.115438,-0.00000402
1.116438,-0.00001992
1.117438,-0.00005155
1.118438,-0.00004335
1.119438,-0.00002982
1.120438,0.00004034
1.121438,-0.00004667
1.122438,-0.00000350
1.123438,-0.00002109
1.124438,0.00001246
1.125438,0.00004086
1.126438,-0.00003874
1.127438,-0.00002122
1.128438,0.00002897
1.129438,0.00003168
1.130438,0.00006422
1.131438,0.00001760
1.132438,-0.00002916
1.133438,-0.00000618
1.134438,-0.00000507
1.135438,0.00004023
1.136438,0.00002819
1.137438,-0.00003896
1.138438,0.00002649
1.139438,0.00000792
1.140438,0.00002425
1.141438,-0.00004813
1.142438,-0.00005210
1.143438,-0.00002419
1.144438,0.00004448
1.145438,0.00001540
1.146438,-0.00001057
1.147438,-0.00003585
1.148438,0.00004344
1.149438,-0.00003609
1.150438,0.00000306
1.151438,-0.00003633
1.152438,0.00005938
1.153438,0.00007431
1.154438,0.00002088
1.155438,-0.00004175
1.156438,-0.00000189
1.157438,-0.00002517
1.158438,0.00006637
1.159438,0.00002498
1.160438,0.00004640
1.161438,-0.00002369
1.162438,0.00001620
1.163438,0.00005248
1.164438,0.00002542
1.165438,-0.00001551
1.166438,0.00000402
1.167438,-0.00002570
1.168438,0.00006798
1.169438,-0.00001262
1.170438,-0.00002223
1.171438,-0.00003149
1.172438,0.00004753
1.173438,-0.00001876
1.174438,-0.00000964
1.175438,0.00002358
1.176438,0.00000662
1.177438,0.00005965
1.178438,-0.00000031
1.179438,-0.00000232
1.180438,0.00001178
1.181438,0.00001764
1.182438,0.00003589
1.183438,-0.00000588
1.184438,0.00000141
1.185438,-0.00001544
1.186438,-0.00002544
1.187438,-0.00005580
1.188438,-0.00002549
1.189438,0.00006093
1.190438,-0.00000363
1.124774,0.00005709
1.125774,-0.00002938
1.126774,-0.00002227
1.127774,-0.00002415
1.128774,-0.00000139
1.129774,0.00000483
1.130774,-0.00000771
1.131774,-0.00006045
1.132774,-0.00000810
1.133774,-0.00000550
1.134774,-0.00001679
1.135774,0.00000183
1.136774,-0.00001983
1.137774,-0.00001150
1.138774,0.00001934
1.139774,-0.00002761
1.140774,0.00003624
1.141774,-0.00002254
1.142774,0.00003946
1.143774,0.00001412
1.144774,-0.00001852
1.145774,-0.00000687
1.146774,0.00004718
1.147774,0.00000139
1.148774,0.00002943
1.149774,0.00000657
1.150774,-0.00002168
1.151774,0.00002978
1.152774,-0.00003321
1.153774,0.00000998
1.154774,-0.00000189
1.155774,0.00002039
1.156774,-0.00001114
1.157774,-0.00000622
1.158774,0.00001037
1.159774,-0.00003509
1.160774,-0.00000361
1.161774,0.00002554
1.162774,0.00003904
1.163774,0.00000461
1.164774,-0.00001257
1.165774,0.00002180
1.166774,-0.00005744
1.167774,-0.00002272
1.168774,0.00001608
1.169774,0.00001616
1.170774,0.00000180
1.171774,0.00000030
1.172774,-0.00000246
1.173774,0.00005488
1.174774,-0.00003594
1.175774,-0.00001929
1.176774,0.00004581
1.177774,-0.00004256
1.178774,0.00003752
1.179774,0.00006036
1.180774,-0.00000379
1.181774,-0.00003938
1.182774,0.00003618
1.183774,-0.00008094
1.184774,-0.00002306
1.185774,0.00001938
1.186774,0.00000083
1.187774,-0.00001407
1.188774,0.00000013
1.189774,0.00000835
1.190774,0.00001828
1.191774,-0.00004023
1.192774,0.00002691
1.193774,0.00003139
1.194774,-0.00001004
1.195774,-0.00000667
1.196774,0.00001179
1.197774,-0.00002581
1.198774,0.00004851
1.199774,-0.00001320
1.200774,-0.00001940
1.201774,0.00000010
1.202774,-0.00003022
1.203774,-0.00002234
1.204774,-0.00005475
1.205774,-0.00002508
1.206774,-0.00003464
1.207774,0.00004283
1.208774,-0.00000907
1.209774,-0.00001774
1.210774,0.00000223
1.211774,0.00000341
1.212774,-0.00004210
1.213774,0.00003492
1.214774,-0.00000608
1.215774,-0.00000328
1.216774,-0.00001704
1.217774,0.00002758
1.218774,-0.00005466
1.219774,-0.00002889
1.220774,0.00004707
1.221774,-0.00001531
1.222774,-0.00001425
1.223774,0.00000881
1.157573,-0.00002859
1.158573,0.00002343
1.159573,0.00004877
1.160573,0.00003155
1.161573,-0.00001127
1.162573,0.00004479
1.163573,0.00002081
1.164573,0.00001555
1.165573,0.00001855
1.166573,-0.00007318
1.167573,0.00001624
1.168573,-0.00004641
1.169573,-0.00002398
1.170573,0.00004215
1.171573,-0.00004055
1.172573,0.00002029
1.173573,0.00003109
1.174573,0.00002428
1.175573,0.00002694
1.176573,0.00002836
1.177573,0.00001394
1.178573,-0.00006117
1.179573,0.00004994
1.180573,-0.00003000
1.181573,0.00003961
1.182573,0.00003698
1.183573,-0.00000370
1.184573,0.00003268
1.185573,-0.00000472
1.186573,-0.00000064
1.187573,0.00007573
1.188573,-0.00005965
1.189573,0.00002311
1.190573,-0.00003048
1.191573,0.00004054
1.192573,-0.00000061
1.193573,-0.00000729
1.194573,-0.00006902
1.195573,-0.00002174
1.196573,-0.00002498
1.197573,0.00000982
1.198573,-0.00002495
1.199573,-0.00003507
1.200573,-0.00004045
1.201573,0.00000210
1.202573,0.00000409
1.203573,-0.00003878
1.204573,-0.00001117
1.205573,-0.00001628
1.206573,-0.00000514
1.207573,-0.00002974
1.208573,0.00001277
1.209573,0.00002704
1.210573,0.00001481
1.211573,-0.00002449
1.212573,0.00000198
1.213573,0.00000351
1.214573,-0.00001555
1.215573,0.00000511
1.216573,-0.00002909
1.217573,-0.00001569
1.218573,0.00000880
1.219573,0.00001269
1.220573,-0.00000095
1.221573,-0.00002864
1.222573,0.00003029
1.223573,-0.00000326
1.224573,0.00003218
1.225573,-0.00001381
1.226573,0.00006309
1.227573,0.00000894
1.228573,-0.00000813
1.229573,-0.00000647
1.230573,-0.00001211
1.231573,0.00001451
1.232573,0.00002425
1.233573,-0.00000006
1.234573,-0.00000020
1.235573,-0.00002870
1.236573,-0.00002467
1.237573,-0.00002194
1.238573,-0.00002737
1.239573,-0.00002945
1.240573,-0.00003398
1.241573,0.00000842
1.242573,-0.00002155
1.243573,0.00001229
1.244573,-0.00000650
1.245573,-0.00001871
1.246573,0.00004022
1.247573,-0.00001084
1.248573,0.00000522
1.249573,0.00005767
1.250573,-0.00000428
1.251573,-0.00001716
1.252573,-0.00004673
1.253573,-0.00000770
1.254573,-0.00000441
1.255573,-0.00000368
1.256573,0.00004049
1.191090,-0.00001617
1.192090,-0.00004412
1.193090,-0.00000461
1.194090,0.00001509
1.195090,-0.00000788
1.196090,0.00002763
1.197090,-0.00000897
1.198090,0.00005118
1.199090,0.00002053
1.200090,0.00000810
1.201090,-0.00001330
1.202090,0.00003032
1.203090,0.00005221
1.204090,0.00004790
1.205090,0.00003326
1.206090,-0.00003294
1.207090,0.00002507
1.208090,0.00001490
1.209090,0.00000184
1.210090,0.00001115
1.211090,0.00000961
1.212090,0.00002534
1.213090,0.00004121
1.214090,-0.00002307
1.215090,0.00005845
1.216090,0.00005571
1.217090,0.00006784
1.218090,0.00005783
1.219090,0.00003264
1.220090,0.00001362
1.221090,0.00005656
1.222090,0.00002259
1.223090,-0.00000561
1.224090,-0.00004031
1.225090,0.00001046
1.226090,0.00003588
1.227090,0.00007276
1.228090,0.00007151
1.229090,-0.00000421
1.230090,-0.00000177
1.231090,0.00001617
1.232090,0.00005352
1.233090,-0.00002152
1.234090,0.00006617
1.235090,0.00001891
1.236090,0.00000370
1.237090,0.00005442
1.238090,0.00006117
1.239090,0.00005126
1.240090,0.00007063
1.241090,0.00003384
1.242090,0.00008124
1.243090,0.00007350
1.244090,0.00008365
1.245090,0.00007599
1.246090,0.00007014
1.247090,0.00011357
1.248090,0.00006247
1.249090,0.00010515
1.250090,0.00013077
1.251090,0.00005439
1.252090,0.00009143
1.253090,0.00009682
1.254090,0.00003698
1.255090,0.00001364
1.256090,0.00006507
1.257090,0.00009562
1.258090,0.00010101
1.259090,0.00005716
1.260090,0.00007402
1.261090,0.00004836
1.262090,0.00011673
1.263090,0.00007309
1.264090,0.00012189
1.265090,0.00013022
1.266090,0.00005571
1.267090,0.00003700
1.268090,0.00001325
1.269090,0.00008766
1.270090,0.00003996
1.271090,0.00003479
1.272090,0.00012549
1.273090,0.00005579
1.274090,0.00001806
1.275090,0.00008913
1.276090,0.00008266
1.277090,0.00012381
1.278090,0.00007169
1.279090,0.00007736
1.280090,0.00003617
1.281090,0.00009723
1.282090,0.00007285
1.283090,0.00003228
1.284090,0.00003470
1.285090,0.00007336
1.286090,0.00000007
1.287090,0.00008939
1.288090,0.00005245
1.289090,0.00010705
1.290090,0.00002938
1.216798,0.00005523
1.217798,0.00005200
1.218798,0.00014843
1.219798,0.00003336
1.220798,0.00009604
1.221798,0.00004843
1.222798,0.00008182
1.223798,0.00008775
1.224798,0.00007456
1.225798,0.00003620
1.226798,0.00008232
1.227798,-0.00001407
1.228798,0.00004116
1.229798,0.00008825
1.230798,0.00005128
1.231798,0.00004361
1.232798,0.00007347
1.233798,-0.00000734
1.234798,0.00006543
1.235798,0.00007961
1.236798,0.00007385
1.237798,0.00001924
1.238798,0.00001200
1.239798,0.00003699
1.240798,0.00011411
1.241798,0.00006481
1.242798,0.00003802
1.243798,0.00002468
1.244798,0.00004969
1.245798,0.00004148
1.246798,-0.00002833
1.247798,-0.00002844
1.248798,0.00007193
1.249798,-0.00002212
1.250798,0.00008963
1.251798,0.00001590
1.252798,-0.00000186
1.253798,0.00004952
1.254798,0.00003792
1.255798,0.00005941
1.256798,0.00003057
1.257798,-0.00003581
1.258798,0.00004460
1.259798,0.00001096
1.260798,0.00000256
1.261798,0.00004994
1.262798,0.00002254
1.263798,-0.00000102
1.264798,0.00003735
1.265798,-0.00000163
1.266798,0.00001285
1.267798,0.00002932
1.268798,0.00002718
1.269798,-0.00000917
1.270798,0.00000651
1.271798,-0.00000420
1.272798,-0.00002215
1.273798,-0.00001144
1.274798,-0.00000750
1.275798,0.00004806
1.276798,0.00000573
1.277798,-0.00001593
1.278798,-0.00003126
1.279798,-0.00001422
1.280798,0.00001191
1.281798,0.00000047
1.282798,-0.00004077
1.283798,0.00005233
1.284798,0.00000923
1.285798,0.00002295
1.286798,-0.00000121
1.287798,-0.00001585
1.288798,0.00000718
1.289798,0.00007738
1.290798,0.00001316
1.291798,-0.00001017
1.292798,-0.00001708
1.293798,0.00002445
1.294798,0.00000969
1.295798,0.00000330
1.296798,0.00000050
1.297798,-0.00002974
1.298798,-0.00002745
1.299798,-0.00000961
1.300798,0.00002093
1.301798,-0.00002472
1.302798,0.00001346
1.303798,0.00002428
1.304798,0.00002625
1.305798,0.00002709
1.306798,0.00004521
1.307798,0.00003566
1.308798,0.00007125
1.309798,-0.00002277
1.310798,0.00008300
1.311798,0.00001449
1.312798,-0.00000233
1.313798,-0.00002369
1.314798,0.00007062
1.315798,0.00000119
1.264263,-0.00002831
1.265263,-0.00001350
1.266263,-0.00001827
1.267263,-0.00001953
1.268263,0.00000662
1.269263,0.00001330
1.270263,0.00005596
1.271263,0.00000917
1.272263,0.00002205
1.273263,0.00000889
1.274263,-0.00004427
1.275263,0.00004477
1.276263,0.00000873
1.277263,0.00000719
1.278263,0.00000780
1.279263,0.00004478
1.280263,0.00003953
1.281263,-0.00001886
1.282263,0.00000846
1.283263,-0.00002096
1.284263,0.00007505
1.285263,0.00003360
1.286263,-0.00002131
1.287263,-0.00004500
1.288263,-0.00003141
1.289263,-0.00000480
1.290263,-0.00003010
1.291263,-0.00000491
1.292263,0.00000466
1.293263,-0.00002808
1.294263,0.00000474
1.295263,-0.00000594
1.296263,0.00001625
1.297263,0.00000645
1.298263,0.00003121
1.299263,0.00000035
1.300263,-0.00004906
1.301263,0.00002530
1.302263,-0.00000673
1.303263,-0.00002457
1.304263,-0.00000603
1.305263,-0.00000866
1.306263,-0.00005743
1.307263,0.00000214
1.308263,0.00003285
1.309263,0.00000863
1.310263,0.00000286
1.311263,-0.00003861
1.312263,0.00000162
1.313263,-0.00004719
1.314263,-0.00003393
1.315263,0.00000464
1.316263,-0.00001196
1.317263,0.00005375
1.318263,-0.00005873
1.319263,0.00003719
1.320263,-0.00002163
1.321263,-0.00002574
1.322263,-0.00005250
1.323263,-0.00000290
1.324263,0.00004295
1.325263,-0.00003368
1.326263,-0.00008380
1.327263,-0.00000622
1.328263,0.00003359
1.329263,0.00003286
1.330263,0.00000389
1.331263,-0.00001567
1.332263,0.00006344
1.333263,-0.00001756
1.334263,-0.00001170
1.335263,-0.00002585
1.336263,0.00003785
1.337263,-0.00002292
1.338263,0.00003697
1.339263,0.00001032
1.340263,0.00001017
1.341263,-0.00006140
1.342263,0.00009441
1.343263,0.00003450
1.344263,0.00004512
1.345263,0.00004374
1.346263,0.00011970
1.347263,0.00013787
1.348263,0.00014992
1.349263,0.00019222
1.350263,0.00021897
1.351263,0.00035986
1.352263,0.00036740
1.353263,0.00049066
1.354263,0.00056446
1.355263,0.00061765
1.356263,0.00070009
1.357263,0.00085226
1.358263,0.00099408
1.359263,0.00097828
1.360263,0.00104703
1.361263,0.00108077
1.362263,0.00118265
1.363263,0.00124416
1.296572,0.00118722
1.297572,0.00119597
1.298572,0.00111735
1.299572,0.00106803
1.300572,0.00104551
1.301572,0.00094620
1.302572,0.00085470
1.303572,0.00076876
1.304572,0.00067134
1.305572,0.00050328
1.306572,0.00043667
1.307572,0.00031859
1.308572,0.00024043
1.309572,0.00017236
1.310572,0.00006657
1.311572,-0.00000066
1.312572,-0.00003613
1.313572,-0.00007542
1.314572,-0.00018030
1.315572,-0.00019739
1.316572,-0.00018598
1.317572,-0.00017648
1.318572,-0.00021349
1.319572,-0.00027570
1.320572,-0.00027342
1.321572,-0.00029466
1.322572,-0.00021469
1.323572,-0.00031189
1.324572,-0.00028290
1.325572,-0.00026412
1.326572,-0.00028625
1.327572,-0.00018194
1.328572,-0.00023202
1.329572,-0.00020377
1.330572,-0.00017370
1.331572,-0.00016184
1.332572,-0.00018031
1.333572,-0.00013965
1.334572,-0.00006624
1.335572,-0.00011692
1.336572,-0.00001891
1.337572,-0.00006318
1.338572,-0.00004774
1.339572,-0.00005247
1.340572,-0.00006866
1.341572,-0.00003135
1.342572,0.00001358
1.343572,-0.00005574
1.344572,-0.00000201
1.345572,0.00002270
1.346572,0.00004286
1.347572,0.00004076
1.348572,0.00003273
1.349572,0.00005851
1.350572,0.00001508
1.351572,0.00003427
1.352572,0.00007225
1.353572,0.00006430
1.354572,0.00001695
1.355572,0.00001143
1.356572,0.00005497
1.357572,0.00001534
1.358572,0.00004548
1.359572,0.00003983
1.360572,0.00003600
1.361572,0.00006638
1.362572,0.00010286
1.363572,0.00002498
1.364572,0.00004863
1.365572,0.00009043
1.366572,0.00006266
1.367572,0.00001874
1.368572,0.00004609
1.369572,0.00014777
1.370572,0.00006382
1.371572,0.00003170
1.372572,0.00004879
1.373572,0.00006873
1.374572,0.00008959
1.375572,0.00008828
1.376572,0.00010752
1.377572,0.00010098
1.378572,0.00008830
1.379572,0.00008612
1.380572,0.00015911
1.381572,0.00011770
1.382572,0.00007897
1.383572,0.00013453
1.384572,0.00011945
1.385572,0.00011078
1.386572,0.00013629
1.387572,0.00011572
1.388572,0.00016107
1.389572,0.00013386
1.390572,0.00010508
1.391572,0.00017424
1.392572,0.00015668
1.393572,0.00015962
1.394572,0.00011541
1.395572,0.00020802
1.328395,0.00013361
1.329395,0.00015951
1.330395,0.00014124
1.331395,0.00019003
1.332395,0.00010758
1.333395,0.00017205
1.334395,0.00015830
1.335395,0.00019038
1.336395,0.00021911
1.337395,0.00020772
1.338395,0.00018879
1.339395,0.00020533
1.340395,0.00015150
1.341395,0.00015665
1.342395,0.00017122
1.343395,0.00018118
1.344395,0.00015420
1.345395,0.00018779
1.346395,0.00024533
1.347395,0.00020602
1.348395,0.00024361
1.349395,0.00020084
1.350395,0.00023300
1.351395,0.00025290
1.352395,0.00019085
1.353395,0.00019307
1.354395,0.00019445
1.355395,0.00025639
1.356395,0.00021940
1.357395,0.00021858
1.358395,0.00018936
1.359395,0.00020496
1.360395,0.00019866
1.361395,0.00026177
1.362395,0.00021421
1.363395,0.00025185
1.364395,0.00024204
1.365395,0.00018919
1.366395,0.00023963
1.367395,0.00020702
1.368395,0.00024288
1.369395,0.00025430
1.370395,0.00025870
1.371395,0.00022820
1.372395,0.00026307
1.373395,0.00017495
1.374395,0.00020256
1.375395,0.00020548
1.376395,0.00020461
1.377395,0.00025011
1.378395,0.00016573
1.379395,0.00022918
1.380395,0.00015630
1.381395,0.00020673
1.382395,0.00016334
1.383395,0.00016654
1.384395,0.00023419
1.385395,0.00017129
1.386395,0.00012546
1.387395,0.00016482
1.388395,0.00019203
1.389395,0.00018550
1.390395,0.00019806
1.391395,0.00019118
1.392395,0.00015541
1.393395,0.00017641
1.394395,0.00017360
1.395395,0.00016689
1.396395,0.00017798
1.397395,0.00015957
1.398395,0.00017638
1.399395,0.00022396
1.400395,0.00012841
1.401395,0.00012215
1.402395,0.00012043
1.403395,0.00014837
1.404395,0.00015962
1.405395,0.00011992
1.406395,0.00013940
1.407395,0.00012647
1.408395,0.00005115
1.409395,0.00019703
1.410395,0.00012074
1.411395,0.00014944
1.412395,0.00007989
1.413395,0.00012505
1.414395,0.00009134
1.415395,0.00016169
1.416395,0.00005441
1.417395,0.00012625
1.418395,0.00011851
1.419395,0.00008127
1.420395,0.00008745
1.421395,0.00003108
1.422395,0.00009299
1.423395,0.00010791
1.424395,0.00008953
1.425395,0.00003538
1.426395,0.00008415
1.427395,0.00006430
1.359727,0.00007371
1.360727,0.00004685
1.361727,0.00006655
1.362727,0.00005863
1.363727,0.00007085
1.364727,0.00000615
1.365727,0.00008954
1.366727,0.00001423
1.367727,0.00000318
1.368727,0.00006074
1.369727,0.00002066
1.370727,0.00010390
1.371727,0.00005469
1.372727,0.00004873
1.373727,0.00000812
1.374727,0.00000826
1.375727,-0.00002699
1.376727,0.00002839
1.377727,0.00002786
1.378727,0.00003426
1.379727,0.00001630
1.380727,0.00003017
1.381727,0.00006171
1.382727,0.00004333
1.383727,0.00004479
1.384727,0.00002083
1.385727,-0.00000286
1.386727,0.00003303
1.387727,0.00006860
1.388727,0.00001641
1.389727,0.00007552
1.390727,0.00002641
1.391727,0.00006048
1.392727,0.00005123
1.393727,0.00005806
1.394727,0.00000401
1.395727,0.00003139
1.396727,-0.00003012
1.397727,-0.00001811
1.398727,0.00002120
1.399727,0.00000194
1.400727,0.00002567
1.401727,0.00001940
1.402727,0.00011706
1.403727,0.00000260
1.404727,0.00001020
1.405727,-0.00002445
1.406727,0.00001522
1.407727,-0.00001273
1.408727,0.00001644
1.409727,0.00003259
1.410727,-0.00000499
1.411727,-0.00004202
1.412727,0.00001425
1.413727,0.00002869
1.414727,0.00003868
1.415727,0.00003014
1.416727,-0.00003372
1.417727,0.00003052
1.418727,0.00001977
1.419727,-0.00002362
1.420727,-0.00003376
1.421727,-0.00003439
1.422727,0.00004350
1.423727,-0.00006233
1.424727,-0.00004110
1.425727,-0.00006486
1.426727,0.00001947
1.427727,-0.00004579
1.428727,-0.00003872
1.429727,-0.00003088
1.430727,-0.00000112
1.431727,0.00001427
1.432727,0.00004736
1.433727,0.00000017
1.434727,0.00002352
1.435727,0.00003794
1.436727,0.00000539
1.437727,-0.00001106
1.438727,0.00001450
1.439727,-0.00002030
1.440727,0.00004173
1.441727,0.00003954
1.442727,-0.00001071
1.443727,0.00001642
1.444727,0.00004245
1.445727,-0.00003229
1.446727,0.00004169
1.447727,-0.00000132
1.448727,-0.00002756
1.449727,-0.00001323
1.450727,0.00002485
1.451727,-0.00006114
1.452727,0.00001327
1.453727,-0.00003645
1.454727,0.00003626
1.455727,-0.00001782
1.456727,-0.00001810
1.457727,0.00004343
1.458727,-0.00000294
1.391270,0.00004535
1.392270,0.00002116
1.393270,0.00000687
1.394270,0.00003864
1.395270,-0.00002094
1.396270,0.00000304
1.397270,-0.00002848
1.398270,-0.00000024
1.399270,-0.00002621
1.400270,-0.00006869
1.401270,0.00000743
1.402270,-0.00002862
1.403270,-0.00000943
1.404270,0.00001366
1.405270,-0.00002584
1.406270,-0.00002075
1.407270,0.00005755
1.408270,-0.00001958
1.409270,-0.00002236
1.410270,0.00000242
1.411270,-0.00000477
1.412270,-0.00000768
1.413270,0.00001026
1.414270,0.00003639
1.415270,-0.00002340
1.416270,-0.00002810
1.417270,0.00001689
1.418270,-0.00001844
1.419270,0.00006710
1.420270,0.00000475
1.421270,-0.00001278
1.422270,-0.00005316
1.423270,0.00002486
1.424270,-0.00006446
1.425270,-0.00003308
1.426270,0.00000590
1.427270,-0.00002460
1.428270,-0.00002171
1.429270,0.00001066
1.430270,-0.00003711
1.431270,0.00000143
1.432270,-0.00000856
1.433270,0.00002000
1.434270,0.00005280
1.435270,-0.00001829
1.436270,0.00007022
1.437270,0.00003404
1.438270,-0.00000654
1.439270,-0.00002397
1.440270,0.00004504
1.441270,0.00003953
1.442270,0.00004513
1.443270,0.00001483
1.444270,-0.00000467
1.445270,0.00004407
1.446270,-0.00006449
1.447270,0.00000570
1.448270,-0.00002661
1.449270,0.00001701
1.450270,-0.00000954
1.451270,-0.00001024
1.452270,-0.00004857
1.453270,0.00002766
1.454270,0.00005860
1.455270,-0.00001450
1.456270,0.00006420
1.457270,-0.00003404
1.458270,0.00002472
1.459270,-0.00002431
1.460270,-0.00002522
1.461270,0.00000020
1.462270,-0.00001807
1.463270,-0.00001141
1.464270,-0.00001110
1.465270,0.00008064
1.466270,0.00002426
1.467270,0.00000393
1.468270,-0.00005963
1.469270,0.00000819
1.470270,0.00001158
1.471270,-0.00003681
1.472270,-0.00001439
1.473270,0.00002354
1.474270,-0.00003178
1.475270,-0.00000157
1.476270,-0.00005523
1.477270,-0.00003399
1.478270,-0.00002593
1.479270,0.00001363
1.480270,0.00000747
1.481270,0.00001907
1.482270,-0.00001844
1.483270,-0.00000440
1.484270,-0.00001390
1.485270,0.00001647
1.486270,0.00001656
1.487270,-0.00002600
1.488270,-0.00000721
1.489270,-0.00002054
1.490270,0.00003948
1.422628,-0.00001390
1.423628,-0.00004909
1.424628,-0.00004895
1.425628,-0.00000454
1.426628,0.00005602
1.427628,-0.00004803
1.428628,-0.00004947
1.429628,-0.00000996
1.430628,0.00003462
1.431628,0.00000914
1.432628,0.00000181
1.433628,-0.00007917
1.434628,0.00001655
1.435628,-0.00000421
1.436628,-0.00002738
1.437628,-0.00006411
1.438628,0.00003075
1.439628,-0.00005059
1.440628,0.00001725
1.441628,-0.00004750
1.442628,0.00005582
1.443628,0.00001575
1.444628,-0.00001943
1.445628,0.00002182
1.446628,0.00000349
1.447628,0.00002875
1.448628,0.00000191
1.449628,0.00000270
1.450628,-0.00000435
1.451628,-0.00001175
1.452628,-0.00005321
1.453628,0.00002083
1.454628,-0.00003289
1.455628,0.00004751
1.456628,-0.00005076
1.457628,0.00001953
1.458628,-0.00003295
1.459628,0.00002397
1.460628,0.00007204
1.461628,0.00000248
1.462628,0.00002820
1.463628,0.00005565
1.464628,-0.00000108
1.465628,-0.00000325
1.466628,-0.00000220
1.467628,0.00000987
1.468628,0.00002654
1.469628,-0.00004779
1.470628,0.00005810
1.471628,0.00000923
1.472628,0.00002397
1.473628,-0.00003924
1.474628,-0.00003995
1.475628,-0.00005030
1.476628,0.00007755
1.477628,0.00003618
1.478628,0.00000576
1.479628,-0.00000343
1.480628,0.00001251
1.481628,0.00000579
1.482628,0.00003577
1.483628,0.00002758
1.484628,-0.00002658
1.485628,-0.00002723
1.486628,0.00000716
1.487628,-0.00008342
1.488628,0.00003846
1.489628,-0.00004815
1.490628,-0.00002465
1.491628,-0.00003145
1.492628,-0.00000124
1.493628,0.00000863
1.494628,0.00004713
1.495628,-0.00002247
1.496628,-0.00003731
1.497628,0.00000876
1.498628,0.00000047
1.499628,0.00001091
1.500628,-0.00002469
1.501628,0.00000066
1.502628,0.00000793
1.503628,0.00003128
1.504628,0.00000931
1.505628,0.00003171
1.506628,-0.00000365
1.507628,-0.00003359
1.508628,-0.00002999
1.509628,-0.00000830
1.510628,0.00000689
1.511628,-0.00004748
1.512628,0.00001045
1.513628,0.00005808
1.514628,-0.00000047
1.515628,0.00004127
1.516628,0.00004965
1.517628,-0.00003848
1.518628,0.00001294
1.519628,0.00002024
1.520628,0.00000109
1.521628,-0.00001402
1.454329,0.00004094
1.455329,0.00003334
1.456329,-0.00004578
1.457329,0.00002324
1.458329,0.00000014
1.459329,0.00001945
1.460329,0.00000942
1.461329,0.00004777
1.462329,0.00000699
1.463329,0.00001790
1.464329,-0.00004486
1.465329,-0.00003885
1.466329,0.00000730
1.467329,0.00001842
1.468329,0.00003331
1.469329,-0.00000965
1.470329,-0.00001631
1.471329,-0.00002173
1.472329,0.00002631
1.473329,-0.00001889
1.474329,0.00001180
1.475329,0.00000843
1.476329,0.00002475
1.477329,0.00003642
1.478329,0.00000752
1.479329,0.00001894
1.480329,0.00007883
1.481329,0.00000518
1.482329,-0.00001201
1.483329,-0.00005598
1.484329,0.00001588
1.485329,-0.00005036
1.486329,-0.00002648
1.487329,-0.00000309
1.488329,-0.00000344
1.489329,0.00002940
1.490329,0.00002572
1.491329,-0.00002383
1.492329,-0.00000650
1.493329,0.00000687
1.494329,0.00003282
1.495329,0.00003269
1.496329,0.00004260
1.497329,-0.00000094
1.498329,-0.00005069
1.499329,-0.00002060
1.500329,-0.00001695
1.501329,-0.00000530
1.502329,0.00001829
1.503329,-0.00004345
1.504329,-0.00001359
1.505329,-0.00001436
1.506329,0.00001321
1.507329,0.00001455
1.508329,0.00001343
1.509329,-0.00002298
1.510329,-0.00000030
1.511329,0.00006510
1.512329,-0.00000368
1.513329,0.00001090
1.514329,0.00003772
1.515329,-0.00000653
1.516329,-0.00000551
1.517329,0.00000790
1.518329,0.00004343
1.519329,0.00003981
1.520329,0.00002383
1.521329,0.00006670
1.522329,0.00002619
1.523329,0.00004174
1.524329,-0.00002566
1.525329,0.00005279
1.526329,0.00006603
1.527329,0.00005772
1.528329,0.00005993
1.529329,-0.00000571
1.530329,0.00000215
1.531329,0.00002839
1.532329,0.00003298
1.533329,0.00002819
1.534329,0.00003712
1.535329,0.00003314
1.536329,0.00002435
1.537329,0.00009353
1.538329,0.00008294
1.539329,0.00003561
1.540329,0.00004115
1.541329,0.00008718
1.542329,0.00003484
1.543329,0.00005896
1.544329,0.00002696
1.545329,0.00004283
1.546329,0.00003733
1.547329,0.00005969
1.548329,0.00008034
1.549329,0.00012679
1.550329,0.00008220
1.551329,0.00007885
1.552329,0.00009679
1.553329,0.00006348
1.485801,0.00007089
1.486801,0.00006426
1.487801,0.00004661
1.488801,0.00007702
1.489801,0.00010728
1.490801,0.00012158
1.491801,0.00004573
1.492801,0.00004000
1.493801,0.00004284
1.494801,0.00006317
1.495801,0.00015047
1.496801,0.00004983
1.497801,0.00003494
1.498801,0.00008184
1.499801,0.00006788
1.500801,0.00008461
1.501801,0.00003772
1.502801,0.00009859
1.503801,0.00009552
1.504801,0.00010676
1.505801,0.00007759
1.506801,0.00002981
1.507801,0.00013749
1.508801,0.00006495
1.509801,0.00011520
1.510801,0.00007514
1.511801,0.00007252
1.512801,0.00007094
1.513801,0.00004471
1.514801,0.00006293
1.515801,0.00006233
1.516801,0.00003801
1.517801,0.00008260
1.518801,0.00012025
1.519801,0.00003970
1.520801,0.00008090
1.521801,0.00010014
1.522801,0.00003051
1.523801,0.00007847
1.524801,0.00007156
1.525801,0.00008993
1.526801,0.00010338
1.527801,0.00005310
1.528801,0.00004632
1.529801,-0.00006396
1.530801,0.00006582
1.531801,0.00004579
1.532801,0.00002823
1.533801,0.00005300
1.534801,0.00004651
1.535801,0.00009427
1.536801,-0.00000144
1.537801,0.00004563
1.538801,0.00008794
1.539801,0.00006979
1.540801,0.00004019
1.541801,0.00003776
1.542801,0.00002273
1.543801,0.00009271
1.544801,-0.00001309
1.545801,0.00003194
1.546801,0.00008078
1.547801,0.00006309
1.548801,-0.00000803
1.549801,0.00003738
1.550801,-0.00002557
1.551801,0.00001453
1.552801,0.00006403
1.553801,-0.00003137
1.554801,-0.00003367
1.555801,0.00002047
1.556801,0.00002840
1.557801,-0.00001346
1.558801,0.00003910
1.559801,0.00001213
1.560801,-0.00001588
1.561801,0.00004875
1.562801,-0.00000960
1.563801,0.00005447
1.564801,0.00001436
1.565801,0.00000440
1.566801,0.00003114
1.567801,0.00002512
1.568801,0.00000583
1.569801,-0.00003202
1.570801,-0.00005739
1.571801,0.00000936
1.572801,-0.00003321
1.573801,-0.00002098
1.574801,0.00001326
1.575801,0.00000345
1.576801,-0.00004865
1.577801,0.00000649
1.578801,-0.00004641
1.579801,-0.00000206
1.580801,-0.00000992
1.581801,0.00000895
1.582801,0.00002202
1.583801,0.00004043
1.584801,0.00001282
1.517478,-0.00002124
1.518478,-0.00002149
1.519478,-0.00000333
1.520478,-0.00001904
1.521478,0.00001983
1.522478,0.00000218
1.523478,0.00000504
1.524478,0.00004624
1.525478,0.00003158
1.526478,0.00004801
1.527478,0.00001686
1.528478,0.00002191
1.529478,-0.00002598
1.530478,0.00001333
1.531478,0.00001102
1.532478,0.00005448
1.533478,0.00004417
1.534478,0.00006321
1.535478,-0.00002697
1.536478,0.00001706
1.537478,0.00001431
1.538478,0.00001652
1.539478,0.00004670
1.540478,-0.00001072
1.541478,0.00001221
1.542478,-0.00000982
1.543478,-0.00000347
1.544478,-0.00003209
1.545478,0.00003758
1.546478,-0.00001068
1.547478,-0.00003485
1.548478,0.00002924
1.549478,0.00005046
1.550478,0.00003949
1.551478,0.00001185
1.552478,0.00001153
1.553478,0.00003425
1.554478,-0.00001280
1.555478,0.00000388
1.556478,-0.00001358
1.557478,-0.00004160
1.558478,-0.00001910
1.559478,-0.00001756
1.560478,-0.00005250
1.561478,-0.00001136
1.562478,-0.00001717
1.563478,-0.00001727
1.564478,-0.00003059
1.565478,-0.00004109
1.566478,-0.00005999
1.567478,-0.00002164
1.568478,-0.00003963
1.569478,0.00001360
1.570478,-0.00000478
1.571478,0.00000143
1.572478,-0.00004034
1.573478,-0.00001851
1.574478,0.00001856
1.575478,0.00003452
1.576478,0.00003237
1.577478,-0.00001231
1.578478,-0.00002210
1.579478,-0.00002250
1.580478,0.00004200
1.581478,-0.00000221
1.582478,0.00002036
1.583478,-0.00005275
1.584478,-0.00000038
1.585478,0.00000276
1.586478,-0.00002982
1.587478,0.00000319
1.588478,-0.00003446
1.589478,0.00001752
1.590478,0.00002762
1.591478,0.00002998
1.592478,0.00001079
1.593478,-0.00003227
1.594478,0.00001278
1.595478,-0.00003773
1.596478,0.00002574
1.597478,-0.00001259
1.598478,-0.00002940
1.599478,-0.00004073
1.600478,0.00000939
1.601478,0.00003477
1.602478,0.00008747
1.603478,0.00000131
1.604478,0.00000040
1.605478,0.00005291
1.606478,-0.00000269
1.607478,0.00001456
1.608478,0.00001416
1.609478,-0.00002981
1.610478,0.00005997
1.611478,0.00001086
1.612478,-0.00002316
1.613478,0.00007589
1.614478,-0.00000309
1.615478,0.00003183
1.616478,0.00004122
1.549429,0.00000198
1.550429,-0.00003216
1.551429,0.00002766
1.552429,-0.00002669
1.553429,0.00000804
1.554429,-0.00004169
1.555429,0.00001467
1.556429,0.00005697
1.557429,0.00003060
1.558429,-0.00005324
1.559429,-0.00002749
1.560429,-0.00000948
1.561429,0.00001219
1.562429,0.00005539
1.563429,0.00005967
1.564429,0.00007981
1.565429,0.00011170
1.566429,0.00011166
1.567429,0.00020069
1.568429,0.00020751
1.569429,0.00028565
1.570429,0.00036841
1.571429,0.00045310
1.572429,0.00045813
1.573429,0.00060819
1.574429,0.00071799
1.575429,0.00075186
1.576429,0.00085932
1.577429,0.00094327
1.578429,0.00103864
1.579429,0.00108926
1.580429,0.00113315
1.581429,0.00116252
1.582429,0.00119450
1.583429,0.00115245
1.584429,0.00117035
1.585429,0.00111422
1.586429,0.00101960
1.587429,0.00100084
1.588429,0.00091989
1.589429,0.00078317
1.590429,0.00067630
1.591429,0.00055389
1.592429,0.00042564
1.593429,0.00034935
1.594429,0.00028918
1.595429,0.00019987
1.596429,0.00012620
1.597429,0.00001153
1.598429,-0.00000646
1.599429,-0.00005295
1.600429,-0.00015711
1.601429,-0.00011756
1.602429,-0.00020636
1.603429,-0.00019958
1.604429,-0.00025458
1.605429,-0.00030999
1.606429,-0.00031590
1.607429,-0.00028028
1.608429,-0.00028320
1.609429,-0.00029013
1.610429,-0.00026310
1.611429,-0.00020573
1.612429,-0.00022312
1.613429,-0.00026153
1.614429,-0.00022214
1.615429,-0.00019436
1.616429,-0.00014315
1.617429,-0.00021174
1.618429,-0.00020226
1.619429,-0.00020009
1.620429,-0.00010641
1.621429,-0.00011149
1.622429,-0.00003773
1.623429,-0.00005131
1.624429,-0.00009689
1.625429,-0.00007240
1.626429,-0.00002824
1.627429,-0.00004988
1.628429,-0.00000135
1.629429,-0.00000164
1.630429,0.00000944
1.631429,0.00001863
1.632429,-0.00000666
1.633429,0.00003199
1.634429,0.00004246
1.635429,0.00000030
1.636429,0.00004656
1.637429,0.00000962
1.638429,0.00004023
1.639429,-0.00000258
1.640429,0.00008282
1.641429,0.00001429
1.642429,0.00004469
1.643429,0.00000102
1.644429,0.00002035
1.645429,0.00005523
1.646429,0.00000835
1.647429,0.00003537
1.648429,0.00004972
1.580947,0.00007944
1.581947,0.00009678
1.582947,0.00003234
1.583947,0.00005616
1.584947,0.00005250
1.585947,0.00004819
1.586947,0.00005067
1.587947,0.00011066
1.588947,0.00011527
1.589947,0.00007134
1.590947,0.00010496
1.591947,0.00011818
1.592947,0.00008151
1.593947,0.00010432
1.594947,0.00010497
1.595947,0.00011307
1.596947,0.00006440
1.597947,0.00017009
1.598947,0.00010058
1.599947,0.00015264
1.600947,0.00011341
1.601947,0.00009146
1.602947,0.00010905
1.603947,0.00014598
1.604947,0.00020727
1.605947,0.00017975
1.606947,0.00018539
1.607947,0.00015433
1.608947,0.00010875
1.609947,0.00010894
1.610947,0.00012741
1.611947,0.00013273
1.612947,0.00016697
1.613947,0.00013407
1.614947,0.00009455
1.615947,0.00012881
1.616947,0.00016443
1.617947,0.00017242
1.618947,0.00015151
1.619947,0.00019247
1.620947,0.00021559
1.621947,0.00023842
1.622947,0.00019163
1.623947,0.00021297
1.624947,0.00018416
1.625947,0.00018140
1.626947,0.00018113
1.627947,0.00015967
1.628947,0.00018106
1.629947,0.00018643
1.630947,0.00018354
1.631947,0.00023193
1.632947,0.00020120
1.633947,0.00017932
1.634947,0.00020947
1.635947,0.00023573
1.636947,0.00015376
1.637947,0.00021282
1.638947,0.00020072
1.639947,0.00025390
1.640947,0.00021001
1.641947,0.00025988
1.642947,0.00020667
1.643947,0.00019041
1.644947,0.00020886
1.645947,0.00023632
1.646947,0.00025413
1.647947,0.00016885
1.648947,0.00018702
1.649947,0.00022921
1.650947,0.00019685
1.651947,0.00024745
1.652947,0.00022630
1.653947,0.00022362
1.654947,0.00022522
1.655947,0.00025571
1.656947,0.00020451
1.657947,0.00024202
1.658947,0.00022671
1.659947,0.00018018
1.660947,0.00020390
1.661947,0.00019991
1.662947,0.00018520
1.663947,0.00020017
1.664947,0.00014999
1.665947,0.00021537
1.666947,0.00016874
1.667947,0.00019901
1.668947,0.00018322
1.669947,0.00019379
1.670947,0.00021057
1.671947,0.00020678
1.672947,0.00021359
1.673947,0.00016190
1.674947,0.00017370
1.675947,0.00017502
1.676947,0.00016729
1.677947,0.00018036
1.678947,0.00019026
1.679947,0.00009668
1.612740,0.00013250
1.613740,0.00015078
1.614740,0.00015219
1.615740,0.00013376
1.616740,0.00016967
1.617740,0.00015445
1.618740,0.00008489
1.619740,0.00013891
1.620740,0.00014709
1.621740,0.00010009
1.622740,0.00011340
1.623740,0.00007002
1.624740,0.00010733
1.625740,0.00017621
1.626740,0.00013625
1.627740,0.00013103
1.628740,0.00013814
1.629740,0.00008521
1.630740,0.00011753
1.631740,0.00011452
1.632740,0.00013606
1.633740,0.00013475
1.634740,0.00006113
1.635740,0.00012593
1.636740,0.00005944
1.637740,0.00004357
1.638740,0.00010157
1.639740,0.00004952
1.640740,0.00001532
1.641740,0.00007510
1.642740,0.00007348
1.643740,0.00007127
1.644740,0.00010246
1.645740,0.00005836
1.646740,0.00005325
1.647740,0.00004899
1.648740,0.00004608
1.649740,0.00010730
1.650740,0.00001009
1.651740,0.00008578
1.652740,0.00004454
1.653740,0.00002802
1.654740,0.00001584
1.655740,0.00009831
1.656740,0.00002175
1.657740,0.00004179
1.658740,0.00002003
1.659740,0.00001223
1.660740,0.00008062
1.661740,0.00006046
1.662740,0.00003229
1.663740,-0.00000301
1.664740,0.00003270
1.665740,0.00004433
1.666740,0.00003167
1.667740,0.00001761
1.668740,0.00001792
1.669740,-0.00001992
1.670740,0.00003700
1.671740,0.00001279
1.672740,0.00003679
1.673740,0.00003479
1.674740,0.00003348
1.675740,-0.00000414
1.676740,-0.00004318
1.677740,0.00000015
1.678740,0.00007916
1.679740,0.00005097
1.680740,0.00000462
1.681740,-0.00001386
1.682740,0.00002199
1.683740,-0.00003571
1.684740,-0.00000117
1.685740,0.00003420
1.686740,-0.00003757
1.687740,-0.00006489
1.688740,0.00003077
1.689740,0.00004049
1.690740,-0.00001001
1.691740,0.00000528
1.692740,0.00003867
1.693740,-0.00006548
1.694740,0.00002059
1.695740,0.00001795
1.696740,0.00002130
1.697740,0.00001328
1.698740,0.00001857
1.699740,0.00005286
1.700740,0.00004004
1.701740,-0.00001798
1.702740,-0.00003697
1.703740,0.00001199
1.704740,0.00000450
1.705740,-0.00002724
1.706740,-0.00002027
1.707740,-0.00005286
1.708740,0.00000726
1.709740,0.00000822
1.710740,0.00000221
1.711740,-0.00002440
1.644144,-0.00002382
1.645144,0.00000201
1.646144,-0.00001860
1.647144,0.00005043
1.648144,-0.00004905
1.649144,-0.00006131
1.650144,0.00000559
1.651144,0.00001784
1.652144,-0.00002763
1.653144,0.00000331
1.654144,0.00003976
1.655144,-0.00000682
1.656144,-0.00004025
1.657144,0.00001966
1.658144,0.00001611
1.659144,-0.00005001
1.660144,-0.00000469
1.661144,-0.00003740
1.662144,0.00006051
1.663144,0.00000411
1.664144,0.00001990
1.665144,-0.00003152
1.666144,-0.00002013
1.667144,-0.00003982
1.668144,0.00002416
1.669144,-0.00002188
1.670144,-0.00001462
1.671144,-0.00005486
1.672144,0.00007206
1.673144,0.00004845
1.674144,-0.00000502
1.675144,-0.00002327
1.676144,0.00003520
1.677144,0.00002009
1.678144,-0.00000760
1.679144,0.00002151
1.680144,0.00001851
1.681144,-0.00003363
1.682144,0.00003791
1.683144,-0.00003947
1.684144,0.00000711
1.685144,-0.00002864
1.686144,0.00001336
1.687144,-0.00002058
1.688144,0.00005226
1.689144,-0.00001298
1.690144,-0.00000416
1.691144,-0.00003293
1.692144,-0.00000182
1.693144,0.00000779
1.694144,-0.00003937
1.695144,-0.00000684
1.696144,0.00001053
1.697144,-0.00000523
1.698144,-0.00000079
1.699144,0.00000413
1.700144,-0.00002589
1.701144,-0.00003279
1.702144,-0.00005529
1.703144,-0.00001042
1.704144,-0.00001021
1.705144,0.00003678
1.706144,0.00001021
1.707144,-0.00002617
1.708144,-0.00001155
1.709144,0.00003429
1.710144,0.00003963
1.711144,0.00000931
1.712144,-0.00000794
1.713144,0.00002827
1.714144,-0.00004669
1.715144,-0.00002248
1.716144,-0.00002857
1.717144,-0.00006684
1.718144,0.00003875
1.719144,0.00002959
1.720144,0.00004106
1.721144,-0.00002526
1.722144,0.00003184
1.723144,-0.00003987
1.724144,-0.00001818
1.725144,0.00001715
1.726144,-0.00004617
1.727144,-0.00001685
1.728144,-0.00003913
1.729144,0.00001807
1.730144,0.00004407
1.731144,0.00003165
1.732144,-0.00001676
1.733144,0.00003433
1.734144,-0.00004019
1.735144,0.00001310
1.736144,0.00001646
1.737144,0.00003875
1.738144,0.00000152
1.739144,0.00005783
1.740144,-0.00002106
1.741144,0.00001822
1.742144,-0.00007562
1.743144,-0.00001427
1.675498,0.00000390
1.676498,-0.00005454
1.677498,0.00003508
1.678498,0.00002619
1.679498,0.00001185
1.680498,0.00004477
1.681498,0.00003406
1.682498,-0.00004500
1.683498,-0.00004877
1.684498,0.00003420
1.685498,-0.00000705
1.686498,0.00000450
1.687498,0.00007261
1.688498,-0.00002280
1.689498,0.00000689
1.690498,-0.00000415
1.691498,0.00001732
1.692498,-0.00001716
1.693498,-0.00000580
1.694498,-0.00006868
1.695498,0.00005272
1.696498,0.00003074
1.697498,0.00000800
1.698498,0.00000664
1.699498,-0.00000618
1.700498,0.00000336
1.701498,-0.00001277
1.702498,-0.00001663
1.703498,-0.00000664
1.704498,-0.00001242
1.705498,-0.00003802
1.706498,0.00001895
1.707498,0.00000087
1.708498,0.00002976
1.709498,0.00005926
1.710498,0.00001250
1.711498,-0.00006893
1.712498,0.00002546
1.713498,-0.00000810
1.714498,-0.00002616
1.715498,0.00003015
1.716498,0.00000005
1.717498,-0.00002540
1.718498,-0.00002726
1.719498,-0.00000552
1.720498,0.00002176
1.721498,0.00001116
1.722498,0.00000128
1.723498,0.00003272
1.724498,-0.00002494
1.725498,-0.00003355
1.726498,-0.00003397
1.727498,-0.00002572
1.728498,-0.00000105
1.729498,-0.00004618
1.730498,-0.00000170
1.731498,0.00002231
1.732498,-0.00002050
1.733498,-0.00000954
1.734498,-0.00007071
1.735498,0.00001035
1.736498,0.00000440
1.737498,0.00003376
1.738498,-0.00006013
1.739498,-0.00000594
1.740498,0.00002295
1.741498,-0.00000355
1.742498,-0.00001308
1.743498,-0.00001583
1.744498,-0.00006851
1.745498,-0.00000641
1.746498,0.00000028
1.747498,0.00000010
1.748498,0.00000783
1.749498,0.00003504
1.750498,0.00000209
1.751498,-0.00000362
1.752498,-0.00003380
1.753498,-0.00004583
1.754498,-0.00002281
1.755498,0.00004381
1.756498,-0.00000357
1.757498,-0.00003560
1.758498,0.00002586
1.759498,0.00004061
1.760498,0.00000917
1.761498,-0.00002306
1.762498,-0.00000194
1.763498,0.00002656
1.764498,0.00000526
1.765498,-0.00005038
1.766498,0.00003795
1.767498,-0.00002951
1.768498,-0.00001090
1.769498,0.00001097
1.770498,-0.00004666
1.771498,-0.00002138
1.772498,-0.00004989
1.773498,0.00004564
1.774498,0.00005610
1.707030,-0.00000144
1.708030,0.00000671
1.709030,-0.00001840
1.710030,0.00001529
1.711030,-0.00000923
1.712030,0.00000184
1.713030,0.00001608
1.714030,0.00000451
1.715030,-0.00004737
1.716030,0.00005470
1.717030,0.00003451
1.718030,-0.00003732
1.719030,-0.00002709
1.720030,0.00000173
1.721030,-0.00000641
1.722030,-0.00008732
1.723030,0.00002429
1.724030,-0.00005133
1.725030,0.00004273
1.726030,-0.00000746
1.727030,-0.00000640
1.728030,0.00001312
1.729030,-0.00000261
1.730030,-0.00001213
1.731030,0.00001557
1.732030,0.00000314
1.733030,-0.00000973
1.734030,-0.00002245
1.735030,0.00002341
1.736030,0.00000024
1.737030,-0.00001979
1.738030,0.00001945
1.739030,0.00002024
1.740030,-0.00002388
1.741030,0.00008367
1.742030,-0.00003868
1.743030,-0.00004542
1.744030,0.00001301
1.745030,0.00001309
1.746030,0.00001840
1.747030,0.00002672
1.748030,0.00002543
1.749030,0.00002316
1.750030,-0.00000593
1.751030,-0.00002725
1.752030,-0.00000174
1.753030,-0.00000749
1.754030,0.00003314
1.755030,0.00000867
1.756030,-0.00000312
1.757030,0.00001877
1.758030,-0.00007082
1.759030,0.00000905
1.760030,-0.00004749
1.761030,0.00005337
1.762030,0.00001473
1.763030,0.00004224
1.764030,0.00004928
1.765030,-0.00002609
1.766030,-0.00003875
1.767030,0.00000204
1.768030,0.00001536
1.769030,-0.00003196
1.770030,-0.00003215
1.771030,0.00001296
1.772030,-0.00001530
1.773030,-0.00000110
1.774030,0.00000822
1.775030,0.00004606
1.776030,0.00003171
1.777030,-0.00000046
1.778030,0.00003443
1.779030,-0.00002335
1.780030,-0.00001573
1.781030,-0.00000068
1.782030,0.00004756
1.783030,0.00002651
1.784030,-0.00000582
1.785030,0.00001361
1.786030,-0.00000424
1.787030,0.00003697
1.788030,0.00002149
1.789030,0.00001698
1.790030,-0.00000164
1.791030,0.00002118
1.792030,0.00005859
1.793030,-0.00001058
1.794030,-0.00001821
1.795030,0.00005445
1.796030,-0.00002735
1.797030,-0.00000449
1.798030,-0.00001427
1.799030,-0.00000151
1.800030,-0.00000952
1.801030,-0.00001906
1.802030,0.00001302
1.803030,0.00007519
1.804030,0.00003428
1.805030,0.00005902
1.806030,0.00003558
1.738641,0.00003464
1.739641,-0.00000049
1.740641,0.00001932
1.741641,-0.00001188
1.742641,0.00002156
1.743641,0.00004704
1.744641,0.00000542
1.745641,0.00004262
1.746641,0.00005808
1.747641,-0.00000834
1.748641,0.00002811
1.749641,0.00001723
1.750641,0.00001131
1.751641,0.00005858
1.752641,0.00003990
1.753641,0.00002657
1.754641,0.00003462
1.755641,0.00005135
1.756641,0.00006276
1.757641,0.00004125
1.758641,0.00002307
1.759641,0.00004564
1.760641,0.00001635
1.761641,0.00009351
1.762641,0.00006063
1.763641,0.00004997
1.764641,0.00008350
1.765641,0.00005560
1.766641,0.00007476
1.767641,0.00009316
1.768641,0.00004783
1.769641,0.00005272
1.770641,0.00003158
1.771641,0.00004207
1.772641,0.00011279
1.773641,0.00007310
1.774641,0.00015210
1.775641,0.00010269
1.776641,0.00008461
1.777641,0.00005561
1.778641,0.00003586
1.779641,0.00008843
1.780641,0.00008931
1.781641,0.00009322
1.782641,0.00004322
1.783641,0.00004709
1.784641,0.00008308
1.785641,0.00001315
1.786641,0.00008307
1.787641,0.00005513
1.788641,0.00011651
1.789641,0.00007916
1.790641,0.00005706
1.791641,0.00007277
1.792641,0.00008593
1.793641,0.00009599
1.794641,0.00008058
1.795641,0.00008008
1.796641,0.00001759
1.797641,0.00009872
1.798641,0.00007897
1.799641,0.00008948
1.800641,0.00013434
1.801641,0.00012183
1.802641,0.00002186
1.803641,0.00011448
1.804641,0.00010895
1.805641,0.00008368
1.806641,0.00007563
1.807641,0.00001892
1.808641,0.00005479
1.809641,0.00011038
1.810641,0.00005061
1.811641,0.00013259
1.812641,0.00004241
1.813641,0.00000808
1.814641,0.00005618
1.815641,0.00011924
1.816641,0.00005642
1.817641,0.00008914
1.818641,0.00015010
1.819641,0.00001947
1.820641,0.00005919
1.821641,0.00006883
1.822641,0.00006498
1.823641,0.00002830
1.824641,0.00003964
1.825641,0.00004617
1.826641,0.00003955
1.827641,0.00000438
1.828641,0.00003214
1.829641,0.00005822
1.830641,0.00003554
1.831641,0.00003207
1.832641,0.00004383
1.833641,0.00004531
1.834641,0.00005385
1.835641,0.00003296
1.836641,0.00009115
1.837641,0.00007957
1.770671,0.00000213
1.771671,0.00005215
1.772671,0.00001964
1.773671,0.00001498
1.774671,0.00001176
1.775671,-0.00001926
1.776671,0.00003504
1.777671,0.00001908
1.778671,0.00003591
1.779671,0.00003524
1.780671,0.00004285
1.781671,0.00003391
1.782671,-0.00000302
1.783671,0.00001327
1.784671,-0.00002214
1.785671,0.00003489
1.786671,0.00001229
1.787671,-0.00000655
1.788671,-0.00001936
1.789671,-0.00003741
1.790671,0.00001788
1.791671,-0.00002032
1.792671,-0.00001567
1.793671,0.00004362
1.794671,-0.00001167
1.795671,0.00000971
1.796671,0.00004849
1.797671,0.00003399
1.798671,0.00001371
1.799671,0.00003106
1.800671,-0.00002712
1.801671,-0.00001341
1.802671,-0.00003426
1.803671,0.00003161
1.804671,-0.00002383
1.805671,-0.00004902
1.806671,-0.00002744
1.807671,0.00001526
1.808671,0.00001081
1.809671,-0.00000667
1.810671,0.00003264
1.811671,0.00000880
1.812671,-0.00001020
1.813671,0.00003048
1.814671,0.00002379
1.815671,-0.00004214
1.816671,0.00000836
1.817671,0.00005291
1.818671,0.00001846
1.819671,-0.00001592
1.820671,-0.00001066
1.821671,0.00004245
1.822671,0.00002545
1.823671,-0.00002829
1.824671,-0.00004476
1.825671,0.00003086
1.826671,-0.00002472
1.827671,-0.00001565
1.828671,0.00006089
1.829671,-0.00001390
1.830671,-0.00000435
1.831671,-0.00006215
1.832671,0.00003073
1.833671,0.00000976
1.834671,0.00002440
1.835671,-0.00007528
1.836671,0.00000353
1.837671,-0.00004788
1.838671,0.00001239
1.839671,-0.00002301
1.840671,-0.00002962
1.841671,0.00000724
1.842671,0.00002553
1.843671,0.00006710
1.844671,0.00000372
1.845671,0.00002802
1.846671,-0.00002956
1.847671,0.00001632
1.848671,0.00000606
1.849671,0.00000057
1.850671,0.00000521
1.851671,-0.00001483
1.852671,-0.00003912
1.853671,-0.00005886
1.854671,-0.00003841
1.855671,0.00001013
1.856671,0.00002063
1.857671,-0.00005147
1.858671,-0.00002962
1.859671,-0.00001685
1.860671,-0.00004409
1.861671,-0.00006222
1.862671,0.00000316
