timestamp,ch1_ecg_V
-0.083942,0.00003486
-0.082942,0.00004029
-0.081942,0.00001517
-0.080942,-0.00004768
-0.079942,-0.00002610
-0.078942,0.00000686
-0.077942,-0.00006470
-0.076942,-0.00002429
-0.075942,0.00001068
-0.074942,0.00001044
-0.073942,-0.00000732
-0.072942,0.00001184
-0.071942,-0.00005968
-0.070942,-0.00004549
-0.069942,0.00003610
-0.068942,-0.00000949
-0.067942,-0.00001194
-0.066942,0.00002524
-0.065942,0.00001468
-0.064942,0.00004214
-0.063942,0.00001082
-0.062942,0.00003520
-0.061942,-0.00002848
-0.060942,0.00002105
-0.059942,0.00004037
-0.058942,0.00001453
-0.057942,-0.00000715
-0.056942,-0.00004304
-0.055942,-0.00006442
-0.054942,-0.00005375
-0.053942,-0.00004306
-0.052942,0.00002722
-0.051942,0.00003119
-0.050942,0.00000261
-0.049942,-0.00002848
-0.048942,-0.00005998
-0.047942,0.00001827
-0.046942,0.00003665
-0.045942,0.00003121
-0.044942,-0.00002092
-0.043942,0.00003859
-0.042942,-0.00000432
-0.041942,0.00002100
-0.040942,-0.00001265
-0.039942,-0.00001154
-0.038942,-0.00000203
-0.037942,0.00000223
-0.036942,0.00002225
-0.035942,0.00003972
-0.034942,-0.00003346
-0.033942,-0.00003166
-0.032942,0.00002231
-0.031942,0.00002913
-0.030942,0.00003038
-0.029942,0.00002255
-0.028942,0.00002131
-0.027942,0.00003071
-0.026942,-0.00004945
-0.025942,-0.00002312
-0.024942,-0.00002547
-0.023942,-0.00000868
-0.022942,0.00003055
-0.021942,0.00000882
-0.020942,0.00003860
-0.019942,-0.00003027
-0.018942,-0.00000289
-0.017942,-0.00000603
-0.016942,0.00001876
-0.015942,0.00003619
-0.014942,0.00000773
-0.013942,-0.00004718
-0.012942,-0.00003687
-0.011942,-0.00001566
-0.010942,0.00002882
-0.009942,0.00002662
-0.008942,-0.00001294
-0.007942,-0.00003474
-0.006942,-0.00005925
-0.005942,-0.00002170
-0.004942,0.00007348
-0.003942,0.00003543
-0.002942,0.00001440
-0.001942,-0.00004377
-0.000942,0.00001738
0.000058,-0.00004989
0.001058,-0.00003690
0.002058,0.00001147
0.003058,-0.00002346
0.004058,-0.00003109
0.005058,-0.00000242
0.006058,-0.00001596
0.007058,0.00003132
0.008058,0.00002502
0.009058,-0.00000547
0.010058,-0.00002494
0.011058,0.00005130
0.012058,-0.00001097
0.013058,0.00003773
0.014058,0.00004876
0.015058,-0.00004359
-0.059270,0.00007198
-0.058270,0.00003641
-0.057270,0.00003502
-0.056270,-0.00004672
-0.055270,0.00007149
-0.054270,-0.00002639
-0.053270,0.00006922
-0.052270,-0.00001790
-0.051270,0.00000954
-0.050270,-0.00000300
-0.049270,0.00002646
-0.048270,0.00003625
-0.047270,0.00003908
-0.046270,0.00002036
-0.045270,0.00004564
-0.044270,-0.00003651
-0.043270,-0.00001405
-0.042270,0.00001626
-0.041270,0.00000025
-0.040270,-0.00002183
-0.039270,0.00000863
-0.038270,-0.00000771
-0.037270,0.00001836
-0.036270,-0.00000905
-0.035270,-0.00001589
-0.034270,0.00001236
-0.033270,0.00001568
-0.032270,-0.00003199
-0.031270,0.00000907
-0.030270,0.00001844
-0.029270,0.00002493
-0.028270,-0.00001538
-0.027270,0.00006592
-0.026270,-0.00001558
-0.025270,-0.00006295
-0.024270,-0.00000445
-0.023270,-0.00001927
-0.022270,-0.00003481
-0.021270,0.00001783
-0.020270,-0.00003200
-0.019270,0.00006748
-0.018270,0.00001574
-0.017270,0.00002280
-0.016270,-0.00000174
-0.015270,0.00000742
-0.014270,-0.00001748
-0.013270,0.00001238
-0.012270,-0.00004007
-0.011270,-0.00001419
-0.010270,-0.00003507
-0.009270,0.00000411
-0.008270,0.00001607
-0.007270,0.00000624
-0.006270,0.00002171
-0.005270,0.00000867
-0.004270,0.00001913
-0.003270,0.00000749
-0.002270,-0.00003338
-0.001270,0.00002345
-0.000270,0.00001474
0.000730,-0.00002269
0.001730,-0.00000943
0.002730,0.00000467
0.003730,0.00000755
0.004730,0.00003272
0.005730,0.00004664
0.006730,-0.00001470
0.007730,-0.00000477
0.008730,0.00002410
0.009730,-0.00001565
0.010730,-0.00007005
0.011730,0.00002656
0.012730,0.00003193
0.013730,-0.00000112
0.014730,0.00000031
0.015730,0.00000065
0.016730,0.00005983
0.017730,-0.00001218
0.018730,0.00005793
0.019730,-0.00001255
0.020730,0.00000190
0.021730,0.00002227
0.022730,-0.00002329
0.023730,0.00001934
0.024730,0.00004743
0.025730,-0.00002609
0.026730,-0.00003635
0.027730,0.00001800
0.028730,0.00002954
0.029730,-0.00001917
0.030730,0.00000907
0.031730,-0.00000529
0.032730,0.00002626
0.033730,0.00001511
0.034730,0.00002600
0.035730,-0.00000991
0.036730,-0.00003319
0.037730,0.00002965
0.038730,0.00000417
0.039730,-0.00001379
-0.029951,-0.00000060
-0.028951,-0.00000665
-0.027951,-0.00001750
-0.026951,0.00001561
-0.025951,0.00001904
-0.024951,0.00002639
-0.023951,-0.00005851
-0.022951,0.00001519
-0.021951,0.00006184
-0.020951,0.00006325
-0.019951,-0.00001911
-0.018951,-0.00000292
-0.017951,-0.00003527
-0.016951,0.00000972
-0.015951,0.00003668
-0.014951,0.00002268
-0.013951,0.00001419
-0.012951,-0.00003670
-0.011951,0.00003784
-0.010951,0.00007155
-0.009951,-0.00003180
-0.008951,0.00001144
-0.007951,0.00000745
-0.006951,-0.00001575
-0.005951,-0.00000716
-0.004951,-0.00000690
-0.003951,0.00000354
-0.002951,0.00002063
-0.001951,0.00006032
-0.000951,0.00004525
0.000049,-0.00002944
0.001049,0.00003751
0.002049,0.00006987
0.003049,0.00003473
0.004049,0.00000210
0.005049,0.00000409
0.006049,-0.00000771
0.007049,0.00005147
0.008049,0.00004024
0.009049,0.00002566
0.010049,0.00003553
0.011049,0.00001195
0.012049,0.00005853
0.013049,0.00003694
0.014049,0.00004463
0.015049,0.00003555
0.016049,-0.00001092
0.017049,0.00007309
0.018049,0.00006024
0.019049,0.00001147
0.020049,0.00009429
0.021049,0.00000116
0.022049,0.00003641
0.023049,0.00005338
0.024049,0.00004203
0.025049,0.00006547
0.026049,0.00007786
0.027049,0.00005746
0.028049,0.00005730
0.029049,0.00004037
0.030049,0.00002910
0.031049,0.00008608
0.032049,0.00001460
0.033049,0.00007851
0.034049,0.00003808
0.035049,0.00006846
0.036049,0.00006808
0.037049,0.00009013
0.038049,0.00004102
0.039049,0.00014258
0.040049,0.00008864
0.041049,0.00011114
0.042049,0.00003972
0.043049,0.00012529
0.044049,0.00003624
0.045049,0.00009546
0.046049,0.00008204
0.047049,0.00012169
0.048049,0.00007187
0.049049,0.00007849
0.050049,0.00008857
0.051049,0.00003349
0.052049,0.00006778
0.053049,0.00003992
0.054049,0.00011929
0.055049,0.00010754
0.056049,0.00013683
0.057049,0.00010361
0.058049,0.00006035
0.059049,0.00007551
0.060049,0.00005379
0.061049,0.00010354
0.062049,0.00006855
0.063049,0.00004215
0.064049,0.00012513
0.065049,0.00005811
0.066049,0.00007991
0.067049,0.00008373
0.068049,0.00006763
0.069049,0.00007229
0.003113,0.00003989
0.004113,0.00005949
0.005113,0.00006867
0.006113,0.00006702
0.007113,0.00005460
0.008113,0.00005584
0.009113,0.00007306
0.010113,0.00006212
0.011113,0.00009442
0.012113,0.00008615
0.013113,0.00010305
0.014113,0.00005393
0.015113,0.00006985
0.016113,0.00006230
0.017113,0.00002528
0.018113,0.00008442
0.019113,0.00006783
0.020113,0.00002874
0.021113,0.00003598
0.022113,0.00002701
0.023113,-0.00000327
0.024113,0.00001381
0.025113,0.00004916
0.026113,0.00001422
0.027113,0.00001570
0.028113,0.00002272
0.029113,0.00005735
0.030113,0.00000851
0.031113,0.00004799
0.032113,0.00004421
0.033113,0.00004985
0.034113,0.00003534
0.035113,0.00002073
0.036113,0.00003772
0.037113,0.00003995
0.038113,0.00006094
0.039113,0.00001278
0.040113,0.00003541
0.041113,0.00005781
0.042113,-0.00002580
0.043113,-0.00002505
0.044113,0.00001342
0.045113,-0.00001453
0.046113,0.00007267
0.047113,0.00005950
0.048113,-0.00004131
0.049113,0.00002219
0.050113,0.00005187
0.051113,0.00000738
0.052113,0.00000423
0.053113,0.00004180
0.054113,0.00001533
0.055113,0.00002917
0.056113,-0.00000253
0.057113,-0.00002252
0.058113,0.00004730
0.059113,0.00003812
0.060113,-0.00000344
0.061113,0.00000274
0.062113,-0.00005445
0.063113,0.00000532
0.064113,-0.00001916
0.065113,0.00000907
0.066113,0.00002164
0.067113,-0.00000449
0.068113,0.00002900
0.069113,0.00001757
0.070113,0.00002352
0.071113,0.00001296
0.072113,-0.00002213
0.073113,0.00000905
0.074113,0.00003605
0.075113,-0.00001263
0.076113,0.00000144
0.077113,0.00000145
0.078113,-0.00003705
0.079113,0.00002007
0.080113,-0.00002062
0.081113,-0.00001161
0.082113,0.00001240
0.083113,0.00001375
0.084113,-0.00003056
0.085113,0.00003478
0.086113,0.00001763
0.087113,0.00001080
0.088113,-0.00001825
0.089113,0.00001927
0.090113,0.00000067
0.091113,-0.00008209
0.092113,0.00002373
0.093113,0.00002103
0.094113,-0.00000072
0.095113,0.00000964
0.096113,0.00002493
0.097113,0.00003467
0.098113,0.00003224
0.099113,-0.00004177
0.100113,0.00001107
0.101113,-0.00001738
0.102113,0.00001980
0.032774,0.00000395
0.033774,-0.00003044
0.034774,-0.00004393
0.035774,-0.00000025
0.036774,-0.00002139
0.037774,0.00006111
0.038774,-0.00000690
0.039774,-0.00003636
0.040774,0.00003523
0.041774,0.00001929
0.042774,0.00002009
0.043774,-0.00000294
0.044774,-0.00000517
0.045774,0.00002302
0.046774,-0.00001033
0.047774,0.00000148
0.048774,-0.00002325
0.049774,0.00004444
0.050774,0.00003443
0.051774,-0.00003088
0.052774,-0.00002368
0.053774,-0.00000547
0.054774,0.00005778
0.055774,-0.00004557
0.056774,0.00000361
0.057774,-0.00000626
0.058774,-0.00002252
0.059774,0.00000088
0.060774,0.00003482
0.061774,0.00004990
0.062774,-0.00000051
0.063774,-0.00000028
0.064774,-0.00000379
0.065774,-0.00001139
0.066774,-0.00000522
0.067774,0.00001194
0.068774,0.00000336
0.069774,0.00001572
0.070774,-0.00002346
0.071774,0.00003726
0.072774,-0.00000764
0.073774,-0.00002392
0.074774,0.00000562
0.075774,-0.00001718
0.076774,0.00000613
0.077774,0.00000059
0.078774,0.00005841
0.079774,-0.00006723
0.080774,-0.00002806
0.081774,0.00001608
0.082774,-0.00001844
0.083774,0.00002544
0.084774,0.00002594
0.085774,0.00003336
0.086774,-0.00000478
0.087774,0.00003632
0.088774,-0.00001932
0.089774,0.00000350
0.090774,0.00000896
0.091774,-0.00003322
0.092774,0.00002513
0.093774,0.00001504
0.094774,0.00001283
0.095774,-0.00004116
0.096774,0.00001295
0.097774,0.00003369
0.098774,-0.00002247
0.099774,-0.00001278
0.100774,0.00000793
0.101774,0.00001483
0.102774,-0.00000162
0.103774,0.00001647
0.104774,0.00001144
0.105774,-0.00006518
0.106774,-0.00000159
0.107774,-0.00000067
0.108774,-0.00002539
0.109774,0.00002233
0.110774,0.00001937
0.111774,0.00003191
0.112774,0.00006489
0.113774,0.00006569
0.114774,0.00006154
0.115774,0.00009342
0.116774,0.00014375
0.117774,0.00018613
0.118774,0.00020587
0.119774,0.00031030
0.120774,0.00030997
0.121774,0.00044041
0.122774,0.00050095
0.123774,0.00061510
0.124774,0.00070616
0.125774,0.00075938
0.126774,0.00092624
0.127774,0.00096226
0.128774,0.00111225
0.129774,0.00108787
0.130774,0.00118084
0.131774,0.00119148
0.068921,0.00122284
0.069921,0.00116279
0.070921,0.00112995
0.071921,0.00102429
0.072921,0.00099286
0.073921,0.00094132
0.074921,0.00087085
0.075921,0.00078661
0.076921,0.00063340
0.077921,0.00058432
0.078921,0.00043860
0.079921,0.00031662
0.080921,0.00027266
0.081921,0.00019600
0.082921,0.00006975
0.083921,0.00004655
0.084921,0.00005318
0.085921,-0.00007472
0.086921,-0.00013439
0.087921,-0.00012368
0.088921,-0.00022435
0.089921,-0.00020367
0.090921,-0.00023016
0.091921,-0.00023543
0.092921,-0.00032632
0.093921,-0.00026159
0.094921,-0.00020383
0.095921,-0.00014525
0.096921,-0.00025977
0.097921,-0.00022852
0.098921,-0.00020485
0.099921,-0.00023113
0.100921,-0.00028368
0.101921,-0.00017696
0.102921,-0.00016735
0.103921,-0.00013881
0.104921,-0.00013702
0.105921,-0.00012759
0.106921,-0.00011013
0.107921,-0.00005518
0.108921,-0.00009854
0.109921,-0.00006341
0.110921,-0.00007123
0.111921,-0.00000232
0.112921,-0.00005592
0.113921,-0.00005579
0.114921,0.00000790
0.115921,-0.00001713
0.116921,0.00001863
0.117921,0.00001136
0.118921,-0.00005366
0.119921,-0.00004444
0.120921,0.00003133
0.121921,0.00003867
0.122921,0.00001676
0.123921,0.00005363
0.124921,0.00005982
0.125921,0.00010246
0.126921,0.00003124
0.127921,0.00006098
0.128921,0.00010190
0.129921,0.00005716
0.130921,0.00007982
0.131921,0.00006481
0.132921,0.00006143
0.133921,0.00003638
0.134921,0.00006553
0.135921,0.00001866
0.136921,0.00005594
0.137921,0.00010836
0.138921,0.00004670
0.139921,0.00008099
0.140921,0.00007605
0.141921,0.00009744
0.142921,0.00005577
0.143921,0.00008102
0.144921,0.00002766
0.145921,0.00010015
0.146921,0.00014086
0.147921,0.00009588
0.148921,0.00012106
0.149921,0.00009201
0.150921,0.00009405
0.151921,0.00015077
0.152921,0.00014552
0.153921,0.00010123
0.154921,0.00012339
0.155921,0.00010659
0.156921,0.00010481
0.157921,0.00009158
0.158921,0.00013067
0.159921,0.00012924
0.160921,0.00014598
0.161921,0.00015673
0.162921,0.00015564
0.163921,0.00010313
0.164921,0.00019680
0.165921,0.00016147
0.166921,0.00014091
0.167921,0.00014985
0.100676,0.00016814
0.101676,0.00014130
0.102676,0.00015159
0.103676,0.00019846
0.104676,0.00016994
0.105676,0.00016795
0.106676,0.00023761
0.107676,0.00016837
0.108676,0.00019802
0.109676,0.00018114
0.110676,0.00019785
0.111676,0.00020027
0.112676,0.00020225
0.113676,0.00020872
0.114676,0.00021120
0.115676,0.00022168
0.116676,0.00019473
0.117676,0.00016499
0.118676,0.00022043
0.119676,0.00021637
0.120676,0.00017064
0.121676,0.00024162
0.122676,0.00016827
0.123676,0.00018865
0.124676,0.00023839
0.125676,0.00022272
0.126676,0.00016129
0.127676,0.00014795
0.128676,0.00021997
0.129676,0.00023481
0.130676,0.00022173
0.131676,0.00018521
0.132676,0.00025133
0.133676,0.00025442
0.134676,0.00026644
0.135676,0.00021419
0.136676,0.00019020
0.137676,0.00020973
0.138676,0.00021798
0.139676,0.00022692
0.140676,0.00018445
0.141676,0.00022487
0.142676,0.00012939
0.143676,0.00016685
0.144676,0.00022924
0.145676,0.00018360
0.146676,0.00021979
0.147676,0.00019204
0.148676,0.00017329
0.149676,0.00023001
0.150676,0.00018492
0.151676,0.00017311
0.152676,0.00023260
0.153676,0.00015927
0.154676,0.00023352
0.155676,0.00019441
0.156676,0.00021887
0.157676,0.00018924
0.158676,0.00015328
0.159676,0.00017108
0.160676,0.00020897
0.161676,0.00018262
0.162676,0.00019510
0.163676,0.00019658
0.164676,0.00019201
0.165676,0.00014875
0.166676,0.00019053
0.167676,0.00015390
0.168676,0.00015571
0.169676,0.00010508
0.170676,0.00015813
0.171676,0.00017522
0.172676,0.00015607
0.173676,0.00014345
0.174676,0.00013504
0.175676,0.00012160
0.176676,0.00013065
0.177676,0.00016115
0.178676,0.00012967
0.179676,0.00010828
0.180676,0.00013819
0.181676,0.00011547
0.182676,0.00006558
0.183676,0.00005358
0.184676,0.00013708
0.185676,0.00009942
0.186676,0.00010583
0.187676,0.00007810
0.188676,0.00006238
0.189676,0.00011519
0.190676,0.00009075
0.191676,0.00006915
0.192676,0.00010612
0.193676,0.00007332
0.194676,0.00010964
0.195676,0.00009219
0.196676,0.00005082
0.197676,0.00009206
0.198676,0.00006932
0.199676,0.00010139
0.132005,0.00006643
0.133005,0.00015103
0.134005,0.00003449
0.135005,0.00005028
0.136005,0.00006154
0.137005,0.00003156
0.138005,0.00008683
0.139005,0.00005587
0.140005,0.00009796
0.141005,0.00007801
0.142005,0.00008720
0.143005,0.00003445
0.144005,-0.00001472
0.145005,0.00005250
0.146005,0.00002694
0.147005,0.00006250
0.148005,0.00000816
0.149005,-0.00002340
0.150005,0.00000953
0.151005,0.00003666
0.152005,0.00003355
0.153005,0.00001854
0.154005,0.00004006
0.155005,0.00007951
0.156005,-0.00000403
0.157005,0.00009920
0.158005,0.00004676
0.159005,0.00000073
0.160005,-0.00005803
0.161005,0.00000443
0.162005,-0.00004126
0.163005,-0.00002321
0.164005,0.00001316
0.165005,0.00000595
0.166005,0.00002179
0.167005,-0.00003576
0.168005,0.00002684
0.169005,0.00002167
0.170005,0.00002286
0.171005,0.00003720
0.172005,0.00004177
0.173005,-0.00000685
0.174005,-0.00001488
0.175005,-0.00000394
0.176005,0.00002885
0.177005,0.00000304
0.178005,0.00002428
0.179005,-0.00003566
0.180005,0.00002257
0.181005,0.00001857
0.182005,-0.00000103
0.183005,0.00000139
0.184005,0.00000497
0.185005,0.00001954
0.186005,-0.00003080
0.187005,-0.00000383
0.188005,0.00000125
0.189005,-0.00002080
0.190005,0.00000420
0.191005,0.00000721
0.192005,-0.00000350
0.193005,0.00001018
0.194005,0.00006432
0.195005,0.00001584
0.196005,-0.00000529
0.197005,0.00001977
0.198005,0.00001851
0.199005,-0.00003277
0.200005,0.00001998
0.201005,0.00000290
0.202005,-0.00001194
0.203005,-0.00004757
0.204005,-0.00001220
0.205005,-0.00005530
0.206005,0.00001324
0.207005,0.00001988
0.208005,0.00001898
0.209005,-0.00000346
0.210005,-0.00002890
0.211005,0.00006351
0.212005,-0.00000658
0.213005,0.00001519
0.214005,0.00002504
0.215005,-0.00001514
0.216005,-0.00002462
0.217005,0.00002717
0.218005,0.00003054
0.219005,-0.00000686
0.220005,0.00002945
0.221005,-0.00000439
0.222005,0.00008187
0.223005,-0.00003361
0.224005,-0.00002523
0.225005,0.00003631
0.226005,-0.00000202
0.227005,-0.00001916
0.228005,0.00008809
0.229005,0.00004540
0.230005,0.00001298
0.231005,-0.00001443
0.163984,0.00001543
0.164984,-0.00002013
0.165984,-0.00001260
0.166984,0.00000059
0.167984,-0.00001017
0.168984,-0.00001583
0.169984,0.00001318
0.170984,0.00000595
0.171984,0.00004369
0.172984,-0.00001878
0.173984,0.00007489
0.174984,-0.00004820
0.175984,0.00004268
0.176984,0.00003428
0.177984,0.00001088
0.178984,0.00000836
0.179984,-0.00006259
0.180984,-0.00005165
0.181984,-0.00001945
0.182984,0.00000261
0.183984,-0.00000268
0.184984,-0.00000646
0.185984,0.00002122
0.186984,0.00002995
0.187984,-0.00000575
0.188984,-0.00006747
0.189984,0.00002636
0.190984,0.00004676
0.191984,0.00000681
0.192984,-0.00000463
0.193984,-0.00003169
0.194984,0.00002166
0.195984,-0.00001560
0.196984,0.00004023
0.197984,-0.00000965
0.198984,-0.00002587
0.199984,0.00000150
0.200984,-0.00000841
0.201984,-0.00002242
0.202984,-0.00000594
0.203984,-0.00001745
0.204984,0.00004023
0.205984,-0.00000643
0.206984,0.00000700
0.207984,-0.00003635
0.208984,0.00002898
0.209984,0.00000538
0.210984,-0.00003144
0.211984,-0.00002469
0.212984,-0.00006035
0.213984,0.00004577
0.214984,-0.00001186
0.215984,-0.00002760
0.216984,-0.00000033
0.217984,0.00000655
0.218984,-0.00005738
0.219984,0.00005219
0.220984,0.00002495
0.221984,-0.00000400
0.222984,0.00002581
0.223984,0.00001146
0.224984,0.00003709
0.225984,0.00001737
0.226984,-0.00003902
0.227984,0.00000225
0.228984,0.00003331
0.229984,0.00003258
0.230984,0.00000817
0.231984,-0.00000304
0.232984,0.00002678
0.233984,-0.00003305
0.234984,-0.00000648
0.235984,0.00002012
0.236984,-0.00000986
0.237984,0.00001349
0.238984,0.00000486
0.239984,0.00003301
0.240984,0.00003315
0.241984,0.00000164
0.242984,-0.00003780
0.243984,-0.00003542
0.244984,-0.00007049
0.245984,-0.00008213
0.246984,-0.00003237
0.247984,0.00004765
0.248984,0.00000756
0.249984,0.00003139
0.250984,-0.00001675
0.251984,0.00001614
0.252984,0.00002591
0.253984,0.00001850
0.254984,0.00005295
0.255984,-0.00000979
0.256984,-0.00001931
0.257984,-0.00001642
0.258984,-0.00001475
0.259984,-0.00003390
0.260984,0.00001527
0.261984,0.00000274
0.262984,-0.00003880
0.195933,0.00000667
0.196933,0.00000104
0.197933,-0.00003085
0.198933,-0.00001651
0.199933,0.00000551
0.200933,-0.00005000
0.201933,0.00001327
0.202933,0.00001250
0.203933,0.00000635
0.204933,0.00002861
0.205933,-0.00001193
0.206933,-0.00006431
0.207933,0.00001746
0.208933,-0.00001303
0.209933,-0.00004303
0.210933,0.00001208
0.211933,-0.00001149
0.212933,-0.00002085
0.213933,-0.00000751
0.214933,-0.00000691
0.215933,0.00002972
0.216933,0.00003397
0.217933,0.00000331
0.218933,0.00003003
0.219933,-0.00001688
0.220933,0.00003539
0.221933,-0.00000391
0.222933,-0.00005290
0.223933,-0.00005324
0.224933,-0.00001476
0.225933,0.00003826
0.226933,-0.00002064
0.227933,-0.00002341
0.228933,0.00001144
0.229933,0.00002803
0.230933,-0.00002189
0.231933,0.00003310
0.232933,-0.00006030
0.233933,-0.00004333
0.234933,-0.00000489
0.235933,-0.00004967
0.236933,-0.00000249
0.237933,-0.00000802
0.238933,0.00000366
0.239933,-0.00004134
0.240933,0.00002740
0.241933,-0.00001474
0.242933,-0.00007389
0.243933,-0.00000488
0.244933,0.00008044
0.245933,0.00002419
0.246933,0.00008584
0.247933,0.00001206
0.248933,-0.00002144
0.249933,-0.00001759
0.250933,-0.00000839
0.251933,-0.00001098
0.252933,-0.00001629
0.253933,0.00002657
0.254933,-0.00002056
0.255933,-0.00000595
0.256933,0.00003473
0.257933,-0.00001100
0.258933,0.00001232
0.259933,0.00002543
0.260933,0.00007160
0.261933,0.00003453
0.262933,-0.00000350
0.263933,0.00004733
0.264933,0.00002597
0.265933,-0.00001728
0.266933,0.00000417
0.267933,-0.00003526
0.268933,-0.00008311
0.269933,-0.00001650
0.270933,0.00000883
0.271933,-0.00000642
0.272933,-0.00000600
0.273933,0.00002222
0.274933,0.00001615
0.275933,-0.00005824
0.276933,-0.00001733
0.277933,0.00003983
0.278933,0.00001574
0.279933,-0.00000324
0.280933,0.00002541
0.281933,0.00001200
0.282933,0.00000957
0.283933,-0.00000718
0.284933,-0.00006619
0.285933,-0.00000983
0.286933,0.00003317
0.287933,0.00001669
0.288933,-0.00000074
0.289933,-0.00001055
0.290933,0.00002126
0.291933,0.00004742
0.292933,0.00002450
0.293933,0.00011097
0.294933,0.00003246
0.227695,-0.00001637
0.228695,-0.00001604
0.229695,-0.00003207
0.230695,-0.00002765
0.231695,-0.00002686
0.232695,-0.00001739
0.233695,0.00003836
0.234695,0.00003038
0.235695,0.00001364
0.236695,0.00001064
0.237695,-0.00001852
0.238695,-0.00001596
0.239695,-0.00001437
0.240695,0.00003500
0.241695,-0.00004553
0.242695,0.00003793
0.243695,-0.00001584
0.244695,0.00000711
0.245695,-0.00000730
0.246695,-0.00001625
0.247695,-0.00003819
0.248695,0.00004559
0.249695,-0.00004660
0.250695,0.00004256
0.251695,0.00005044
0.252695,0.00000110
0.253695,0.00001867
0.254695,-0.00002221
0.255695,0.00006065
0.256695,-0.00003299
0.257695,-0.00000708
0.258695,-0.00000943
0.259695,0.00001950
0.260695,0.00003486
0.261695,0.00002378
0.262695,-0.00003097
0.263695,-0.00000395
0.264695,0.00003669
0.265695,-0.00000136
0.266695,0.00000020
0.267695,0.00001781
0.268695,-0.00001850
0.269695,0.00002792
0.270695,0.00006395
0.271695,-0.00002663
0.272695,-0.00000350
0.273695,0.00001480
0.274695,0.00004399
0.275695,0.00004756
0.276695,-0.00000986
0.277695,-0.00001285
0.278695,0.00002386
0.279695,0.00002048
0.280695,0.00002469
0.281695,-0.00004511
0.282695,-0.00001260
0.283695,0.00001595
0.284695,0.00003602
0.285695,0.00000211
0.286695,-0.00003441
0.287695,-0.00008782
0.288695,0.00001264
0.289695,0.00002419
0.290695,0.00004424
0.291695,0.00001450
0.292695,-0.00000649
0.293695,-0.00000073
0.294695,0.00003705
0.295695,0.00000802
0.296695,-0.00001057
0.297695,0.00003731
0.298695,0.00002933
0.299695,0.00004291
0.300695,0.00004088
0.301695,0.00000737
0.302695,0.00002101
0.303695,0.00005925
0.304695,0.00009311
0.305695,0.00002232
0.306695,0.00003675
0.307695,0.00003456
0.308695,0.00001378
0.309695,0.00007949
0.310695,0.00003040
0.311695,0.00009283
0.312695,0.00003458
0.313695,0.00006249
0.314695,0.00003468
0.315695,0.00006871
0.316695,0.00005015
0.317695,0.00010387
0.318695,0.00007568
0.319695,0.00004905
0.320695,0.00006651
0.321695,0.00008518
0.322695,0.00005551
0.323695,0.00005754
0.324695,0.00015147
0.325695,0.00009176
0.326695,0.00007944
0.259660,0.00011599
0.260660,0.00010269
0.261660,0.00005592
0.262660,0.00012318
0.263660,0.00009329
0.264660,0.00003783
0.265660,0.00007117
0.266660,0.00013309
0.267660,0.00008293
0.268660,0.00005792
0.269660,0.00005520
0.270660,0.00011124
0.271660,0.00007947
0.272660,0.00007475
0.273660,0.00008135
0.274660,0.00014138
0.275660,0.00006963
0.276660,0.00010118
0.277660,0.00006036
0.278660,0.00012005
0.279660,0.00010395
0.280660,0.00002825
0.281660,0.00005347
0.282660,0.00012194
0.283660,0.00000917
0.284660,0.00009116
0.285660,0.00007670
0.286660,0.00004099
0.287660,0.00011847
0.288660,0.00008214
0.289660,0.00006860
0.290660,0.00004532
0.291660,0.00007801
0.292660,0.00006164
0.293660,0.00006191
0.294660,0.00009690
0.295660,0.00010765
0.296660,0.00003643
0.297660,0.00008010
0.298660,0.00006582
0.299660,0.00004735
0.300660,0.00002073
0.301660,0.00005386
0.302660,0.00008320
0.303660,0.00008391
0.304660,0.00004021
0.305660,0.00008443
0.306660,0.00001298
0.307660,0.00006436
0.308660,0.00000184
0.309660,0.00003326
0.310660,0.00003642
0.311660,0.00002712
0.312660,0.00002987
0.313660,0.00008778
0.314660,0.00004208
0.315660,0.00000005
0.316660,0.00003327
0.317660,0.00001716
0.318660,0.00005357
0.319660,0.00000466
0.320660,0.00003577
0.321660,0.00003183
0.322660,-0.00003134
0.323660,0.00002682
0.324660,-0.00001276
0.325660,0.00002000
0.326660,-0.00001958
0.327660,0.00003113
0.328660,0.00004232
0.329660,0.00008126
0.330660,0.00003561
0.331660,0.00000811
0.332660,-0.00002948
0.333660,0.00001849
0.334660,-0.00002243
0.335660,0.00000979
0.336660,0.00006371
0.337660,0.00003367
0.338660,0.00004484
0.339660,-0.00001311
0.340660,0.00001880
0.341660,-0.00001995
0.342660,0.00001204
0.343660,-0.00005615
0.344660,0.00000645
0.345660,0.00001821
0.346660,-0.00003649
0.347660,-0.00000002
0.348660,0.00005622
0.349660,-0.00002702
0.350660,-0.00001414
0.351660,0.00007143
0.352660,-0.00000905
0.353660,0.00001956
0.354660,-0.00000018
0.355660,-0.00000144
0.356660,0.00002251
0.357660,-0.00006220
0.358660,-0.00002934
0.291346,0.00001828
0.292346,-0.00002497
0.293346,-0.00003038
0.294346,0.00001660
0.295346,-0.00003677
0.296346,0.00002839
0.297346,-0.00003301
0.298346,-0.00004932
0.299346,-0.00002363
0.300346,-0.00003883
0.301346,0.00002748
0.302346,-0.00000552
0.303346,-0.00000338
0.304346,-0.00000344
0.305346,-0.00000807
0.306346,0.00002282
0.307346,0.00004051
0.308346,-0.00002834
0.309346,0.00004916
0.310346,-0.00000318
0.311346,-0.00000127
0.312346,-0.00000464
0.313346,-0.00002173
0.314346,0.00002116
0.315346,-0.00005888
0.316346,0.00005415
0.317346,-0.00002526
0.318346,-0.00003090
0.319346,-0.00004945
0.320346,0.00003374
0.321346,-0.00007403
0.322346,-0.00002973
0.323346,-0.00002526
0.324346,-0.00001196
0.325346,-0.00002170
0.326346,0.00000283
0.327346,0.00002800
0.328346,-0.00004290
0.329346,-0.00001130
0.330346,0.00000082
0.331346,-0.00000002
0.332346,0.00004486
0.333346,-0.00003360
0.334346,0.00002217
0.335346,-0.00001644
0.336346,0.00005350
0.337346,-0.00000126
0.338346,0.00000864
0.339346,-0.00005683
0.340346,0.00000227
0.341346,-0.00002250
0.342346,0.00001040
0.343346,-0.00000145
0.344346,-0.00001431
0.345346,0.00005013
0.346346,0.00003127
0.347346,-0.00000685
0.348346,-0.00002390
0.349346,-0.00001044
0.350346,-0.00001401
0.351346,0.00001356
0.352346,-0.00001531
0.353346,0.00002993
0.354346,0.00000904
0.355346,-0.00002062
0.356346,0.00000569
0.357346,0.00000663
0.358346,-0.00002698
0.359346,0.00000670
0.360346,0.00003349
0.361346,-0.00001494
0.362346,0.00000281
0.363346,-0.00003279
0.364346,0.00001558
0.365346,0.00006654
0.366346,-0.00001852
0.367346,-0.00000133
0.368346,0.00001778
0.369346,0.00002807
0.370346,0.00002020
0.371346,0.00001985
0.372346,-0.00002241
0.373346,-0.00003549
0.374346,-0.00000229
0.375346,-0.00001627
0.376346,-0.00002789
0.377346,0.00001416
0.378346,0.00000203
0.379346,0.00002482
0.380346,-0.00001136
0.381346,0.00004401
0.382346,-0.00001083
0.383346,0.00000675
0.384346,-0.00003501
0.385346,0.00003483
0.386346,0.00004285
0.387346,0.00000796
0.388346,0.00004964
0.389346,-0.00003217
0.390346,0.00003206
0.322814,0.00004588
0.323814,-0.00001842
0.324814,-0.00001098
0.325814,0.00000825
0.326814,0.00002571
0.327814,-0.00000156
0.328814,0.00000401
0.329814,0.00001191
0.330814,0.00002398
0.331814,-0.00000324
0.332814,0.00001559
0.333814,0.00000914
0.334814,0.00001034
0.335814,0.00004090
0.336814,0.00004234
0.337814,0.00005620
0.338814,0.00010662
0.339814,0.00013642
0.340814,0.00017042
0.341814,0.00023877
0.342814,0.00031613
0.343814,0.00033350
0.344814,0.00045512
0.345814,0.00049624
0.346814,0.00060169
0.347814,0.00070721
0.348814,0.00073273
0.349814,0.00088497
0.350814,0.00103338
0.351814,0.00106043
0.352814,0.00102798
0.353814,0.00114705
0.354814,0.00115876
0.355814,0.00115641
0.356814,0.00118267
0.357814,0.00113418
0.358814,0.00111030
0.359814,0.00102442
0.360814,0.00095909
0.361814,0.00083259
0.362814,0.00075494
0.363814,0.00071204
0.364814,0.00053948
0.365814,0.00046067
0.366814,0.00040486
0.367814,0.00035220
0.368814,0.00022101
0.369814,0.00011343
0.370814,0.00000913
0.371814,0.00003452
0.372814,-0.00003973
0.373814,-0.00010552
0.374814,-0.00015268
0.375814,-0.00016876
0.376814,-0.00020373
0.377814,-0.00028162
0.378814,-0.00027228
0.379814,-0.00024884
0.380814,-0.00032187
0.381814,-0.00023172
0.382814,-0.00023832
0.383814,-0.00025555
0.384814,-0.00030743
0.385814,-0.00025501
0.386814,-0.00024075
0.387814,-0.00024501
0.388814,-0.00020092
0.389814,-0.00017127
0.390814,-0.00017149
0.391814,-0.00018548
0.392814,-0.00015476
0.393814,-0.00008413
0.394814,-0.00008869
0.395814,-0.00006354
0.396814,-0.00004681
0.397814,-0.00008235
0.398814,-0.00010118
0.399814,-0.00003317
0.400814,-0.00007408
0.401814,-0.00000038
0.402814,0.00000126
0.403814,-0.00004175
0.404814,-0.00003907
0.405814,0.00001215
0.406814,0.00001971
0.407814,0.00005007
0.408814,0.00003230
0.409814,0.00003933
0.410814,0.00001345
0.411814,0.00005124
0.412814,0.00002784
0.413814,0.00002363
0.414814,0.00005627
0.415814,0.00007064
0.416814,0.00000990
0.417814,0.00005266
0.418814,0.00005225
0.419814,0.00011777
0.420814,0.00006053
0.421814,0.00004448
0.345681,0.00002597
0.346681,0.00002510
0.347681,0.00007743
0.348681,0.00004820
0.349681,0.00003546
0.350681,0.00014058
0.351681,0.00006856
0.352681,0.00007661
0.353681,0.00006290
0.354681,0.00006985
0.355681,0.00013679
0.356681,0.00011886
0.357681,0.00014485
0.358681,0.00005154
0.359681,0.00007392
0.360681,0.00005947
0.361681,0.00009670
0.362681,0.00010045
0.363681,0.00011471
0.364681,0.00011827
0.365681,0.00014507
0.366681,0.00009935
0.367681,0.00015784
0.368681,0.00010034
0.369681,0.00010031
0.370681,0.00014381
0.371681,0.00015413
0.372681,0.00013888
0.373681,0.00013914
0.374681,0.00018497
0.375681,0.00014258
0.376681,0.00015166
0.377681,0.00020170
0.378681,0.00016977
0.379681,0.00010156
0.380681,0.00019115
0.381681,0.00010846
0.382681,0.00018572
0.383681,0.00020609
0.384681,0.00018284
0.385681,0.00020564
0.386681,0.00015104
0.387681,0.00016247
0.388681,0.00019680
0.389681,0.00018984
0.390681,0.00020237
0.391681,0.00019590
0.392681,0.00015792
0.393681,0.00017133
0.394681,0.00023714
0.395681,0.00019481
0.396681,0.00019586
0.397681,0.00023888
0.398681,0.00022769
0.399681,0.00019830
0.400681,0.00022300
0.401681,0.00021327
0.402681,0.00021488
0.403681,0.00025441
0.404681,0.00024041
0.405681,0.00023090
0.406681,0.00020556
0.407681,0.00019490
0.408681,0.00020678
0.409681,0.00020536
0.410681,0.00021712
0.411681,0.00028018
0.412681,0.00022073
0.413681,0.00019002
0.414681,0.00022899
0.415681,0.00019477
0.416681,0.00019258
0.417681,0.00022046
0.418681,0.00023001
0.419681,0.00022161
0.420681,0.00023361
0.421681,0.00024269
0.422681,0.00018298
0.423681,0.00018160
0.424681,0.00021543
0.425681,0.00025104
0.426681,0.00022302
0.427681,0.00020955
0.428681,0.00020840
0.429681,0.00026267
0.430681,0.00021658
0.431681,0.00018154
0.432681,0.00021355
0.433681,0.00022355
0.434681,0.00017072
0.435681,0.00017851
0.436681,0.00021666
0.437681,0.00021923
0.438681,0.00019044
0.439681,0.00013457
0.440681,0.00020966
0.441681,0.00021012
0.442681,0.00016686
0.443681,0.00016872
0.444681,0.00014722
0.386300,0.00009095
0.387300,0.00015782
0.388300,0.00015829
0.389300,0.00020542
0.390300,0.00013810
0.391300,0.00017213
0.392300,0.00016793
0.393300,0.00014003
0.394300,0.00013058
0.395300,0.00014370
0.396300,0.00016228
0.397300,0.00011420
0.398300,0.00011615
0.399300,0.00010950
0.400300,0.00009483
0.401300,0.00010554
0.402300,0.00008351
0.403300,0.00010832
0.404300,0.00008405
0.405300,0.00010848
0.406300,0.00009403
0.407300,0.00011506
0.408300,0.00010904
0.409300,0.00011633
0.410300,0.00009521
0.411300,0.00011527
0.412300,0.00012453
0.413300,0.00007802
0.414300,0.00003864
0.415300,0.00012945
0.416300,0.00013035
0.417300,0.00002280
0.418300,0.00001908
0.419300,0.00007019
0.420300,0.00004842
0.421300,0.00005411
0.422300,0.00008269
0.423300,0.00007317
0.424300,0.00001387
0.425300,0.00004552
0.426300,0.00008220
0.427300,0.00006998
0.428300,0.00003250
0.429300,0.00005479
0.430300,0.00004804
0.431300,0.00008469
0.432300,0.00001163
0.433300,0.00004239
0.434300,0.00007167
0.435300,0.00001447
0.436300,0.00003920
0.437300,0.00000881
0.438300,0.00008538
0.439300,0.00004113
0.440300,0.00001669
0.441300,-0.00000954
0.442300,0.00000349
0.443300,0.00004180
0.444300,-0.00000886
0.445300,0.00003352
0.446300,0.00001126
0.447300,0.00000413
0.448300,-0.00002633
0.449300,-0.00001213
0.450300,-0.00000963
0.451300,-0.00000603
0.452300,0.00002356
0.453300,0.00008918
0.454300,-0.00000278
0.455300,-0.00001340
0.456300,-0.00001706
0.457300,0.00000823
0.458300,0.00000151
0.459300,0.00000430
0.460300,-0.00000139
0.461300,0.00001545
0.462300,-0.00001864
0.463300,0.00000919
0.464300,0.00001026
0.465300,-0.00000654
0.466300,0.00001748
0.467300,0.00000412
0.468300,-0.00002684
0.469300,-0.00000085
0.470300,-0.00004414
0.471300,0.00001362
0.472300,-0.00000967
0.473300,0.00003032
0.474300,-0.00001114
0.475300,0.00000759
0.476300,0.00001115
0.477300,-0.00000723
0.478300,-0.00002219
0.479300,-0.00002085
0.480300,0.00001409
0.481300,-0.00003674
0.482300,0.00002172
0.483300,0.00000649
0.484300,-0.00002455
0.485300,-0.00000826
0.407510,0.00000055
0.408510,-0.00005259
0.409510,-0.00002246
0.410510,-0.00001887
0.411510,0.00000258
0.412510,-0.00002324
0.413510,-0.00000013
0.414510,-0.00001700
0.415510,0.00003537
0.416510,0.00002945
0.417510,-0.00003139
0.418510,0.00000640
0.419510,-0.00000618
0.420510,-0.00003655
0.421510,0.00004700
0.422510,-0.00002760
0.423510,-0.00003580
0.424510,-0.00000734
0.425510,0.00000505
0.426510,0.00007364
0.427510,0.00001828
0.428510,-0.00004114
0.429510,-0.00001205
0.430510,-0.00000310
0.431510,-0.00003187
0.432510,-0.00003929
0.433510,-0.00000693
0.434510,-0.00005280
0.435510,-0.00002796
0.436510,0.00005760
0.437510,-0.00006396
0.438510,0.00002168
0.439510,-0.00001057
0.440510,-0.00000393
0.441510,-0.00001509
0.442510,0.00002043
0.443510,0.00000842
0.444510,0.00002081
0.445510,-0.00000832
0.446510,0.00003499
0.447510,0.00003345
0.448510,-0.00000395
0.449510,0.00003662
0.450510,-0.00000067
0.451510,0.00001880
0.452510,-0.00000632
0.453510,-0.00002923
0.454510,-0.00001305
0.455510,0.00005401
0.456510,0.00005397
0.457510,-0.00001607
0.458510,0.00001512
0.459510,-0.00003034
0.460510,0.00000657
0.461510,-0.00000775
0.462510,0.00003971
0.463510,0.00000164
0.464510,0.00001858
0.465510,0.00001372
0.466510,-0.00002857
0.467510,-0.00000501
0.468510,-0.00004304
0.469510,0.00002025
0.470510,0.00003234
0.471510,0.00006678
0.472510,-0.00001570
0.473510,-0.00001525
0.474510,-0.00006111
0.475510,0.00001901
0.476510,-0.00004227
0.477510,-0.00003816
0.478510,0.00000028
0.479510,0.00004768
0.480510,-0.00000629
0.481510,0.00000908
0.482510,0.00001448
0.483510,-0.00001436
0.484510,-0.00001232
0.485510,-0.00004724
0.486510,0.00002783
0.487510,0.00003000
0.488510,-0.00001388
0.489510,0.00002686
0.490510,0.00002555
0.491510,0.00001055
0.492510,-0.00002559
0.493510,-0.00010699
0.494510,-0.00003499
0.495510,0.00002297
0.496510,-0.00002157
0.497510,0.00001741
0.498510,0.00000938
0.499510,0.00000785
0.500510,-0.00000632
0.501510,-0.00003358
0.502510,0.00001823
0.503510,0.00001450
0.504510,0.00005017
0.505510,0.00001445
0.506510,0.00003602
0.445011,0.00000939
0.446011,-0.00003531
0.447011,-0.00006381
0.448011,-0.00004342
0.449011,0.00004804
0.450011,0.00002585
0.451011,-0.00004307
0.452011,0.00002505
0.453011,0.00002767
0.454011,0.00000227
0.455011,0.00001294
0.456011,-0.00004149
0.457011,0.00003513
0.458011,0.00001386
0.459011,0.00001423
0.460011,0.00006671
0.461011,0.00006215
0.462011,-0.00001826
0.463011,0.00000134
0.464011,-0.00005702
0.465011,-0.00000546
0.466011,-0.00000689
0.467011,-0.00003730
0.468011,0.00000279
0.469011,0.00002607
0.470011,0.00001451
0.471011,0.00001475
0.472011,-0.00000876
0.473011,0.00001373
0.474011,0.00001407
0.475011,0.00004093
0.476011,-0.00005275
0.477011,0.00000124
0.478011,0.00000930
0.479011,0.00006134
0.480011,-0.00000817
0.481011,-0.00000128
0.482011,-0.00003698
0.483011,-0.00000222
0.484011,-0.00000813
0.485011,0.00003407
0.486011,0.00004265
0.487011,0.00002564
0.488011,-0.00000937
0.489011,0.00001954
0.490011,-0.00000168
0.491011,-0.00006246
0.492011,0.00003545
0.493011,-0.00007999
0.494011,0.00000433
0.495011,0.00002318
0.496011,0.00002314
0.497011,0.00000111
0.498011,0.00000705
0.499011,-0.00000628
0.500011,-0.00003310
0.501011,0.00002572
0.502011,0.00001043
0.503011,0.00004158
0.504011,0.00000114
0.505011,-0.00006110
0.506011,-0.00001340
0.507011,0.00000890
0.508011,-0.00002176
0.509011,0.00001297
0.510011,0.00002984
0.511011,0.00000014
0.512011,-0.00003848
0.513011,-0.00002423
0.514011,0.00003031
0.515011,0.00003656
0.516011,-0.00006484
0.517011,0.00006229
0.518011,0.00001206
0.519011,-0.00001918
0.520011,-0.00002755
0.521011,0.00001389
0.522011,-0.00000899
0.523011,0.00000346
0.524011,0.00001087
0.525011,-0.00004969
0.526011,-0.00000852
0.527011,-0.00003114
0.528011,-0.00002055
0.529011,0.00000905
0.530011,-0.00000518
0.531011,0.00002451
0.532011,0.00000152
0.533011,-0.00001370
0.534011,-0.00002016
0.535011,0.00001113
0.536011,0.00003649
0.537011,0.00000286
0.538011,0.00002281
0.539011,-0.00002132
0.540011,-0.00001064
0.541011,-0.00000339
0.542011,0.00003454
0.543011,0.00002130
0.544011,0.00008671
0.478443,-0.00000472
0.479443,0.00004431
0.480443,0.00003057
0.481443,0.00001798
0.482443,0.00003837
0.483443,0.00004148
0.484443,-0.00001264
0.485443,-0.00001686
0.486443,-0.00001529
0.487443,-0.00005016
0.488443,0.00001587
0.489443,-0.00001300
0.490443,0.00002059
0.491443,-0.00001458
0.492443,0.00000707
0.493443,-0.00000861
0.494443,-0.00003583
0.495443,0.00005007
0.496443,0.00002179
0.497443,-0.00002297
0.498443,0.00001375
0.499443,0.00003157
0.500443,-0.00003005
0.501443,0.00003652
0.502443,0.00001103
0.503443,0.00001890
0.504443,0.00001131
0.505443,-0.00002061
0.506443,0.00002570
0.507443,0.00004471
0.508443,0.00002171
0.509443,-0.00003930
0.510443,0.00002773
0.511443,-0.00002968
0.512443,-0.00002129
0.513443,-0.00004393
0.514443,-0.00001634
0.515443,0.00000715
0.516443,0.00001183
0.517443,-0.00001546
0.518443,-0.00000678
0.519443,0.00000302
0.520443,-0.00000684
0.521443,0.00004362
0.522443,-0.00005667
0.523443,-0.00004654
0.524443,0.00002380
0.525443,-0.00001322
0.526443,0.00003015
0.527443,0.00001768
0.528443,-0.00002296
0.529443,-0.00004018
0.530443,0.00000416
0.531443,0.00002407
0.532443,-0.00003669
0.533443,0.00001957
0.534443,0.00003769
0.535443,-0.00000408
0.536443,0.00000210
0.537443,-0.00001315
0.538443,0.00003421
0.539443,0.00000446
0.540443,0.00006178
0.541443,-0.00003934
0.542443,0.00000106
0.543443,0.00002029
0.544443,-0.00002367
0.545443,-0.00001105
0.546443,0.00002349
0.547443,-0.00003737
0.548443,0.00001540
0.549443,0.00001670
0.550443,0.00004843
0.551443,0.00003489
0.552443,0.00003933
0.553443,0.00001830
0.554443,-0.00003164
0.555443,-0.00001808
0.556443,0.00002085
0.557443,-0.00002432
0.558443,0.00004259
0.559443,0.00005691
0.560443,-0.00000229
0.561443,0.00005595
0.562443,0.00002065
0.563443,0.00001834
0.564443,-0.00000234
0.565443,-0.00000230
0.566443,0.00005722
0.567443,0.00003088
0.568443,0.00006525
0.569443,0.00002191
0.570443,0.00000056
0.571443,0.00003794
0.572443,-0.00000645
0.573443,0.00000084
0.574443,-0.00000004
0.575443,0.00004473
0.576443,0.00002333
0.577443,0.00005089
0.502025,0.00006239
0.503025,0.00002634
0.504025,-0.00000693
0.505025,0.00001523
0.506025,0.00007157
0.507025,0.00002548
0.508025,-0.00000776
0.509025,0.00001918
0.510025,0.00007722
0.511025,0.00003218
0.512025,0.00010675
0.513025,0.00003457
0.514025,-0.00000079
0.515025,0.00004747
0.516025,0.00003573
0.517025,0.00001863
0.518025,0.00005546
0.519025,0.00008315
0.520025,0.00007170
0.521025,0.00006626
0.522025,0.00010827
0.523025,0.00002422
0.524025,0.00005052
0.525025,0.00005371
0.526025,0.00006100
0.527025,0.00008534
0.528025,0.00006849
0.529025,0.00006832
0.530025,0.00003514
0.531025,-0.00002174
0.532025,0.00003678
0.533025,0.00006218
0.534025,0.00003184
0.535025,0.00011026
0.536025,0.00008286
0.537025,0.00004092
0.538025,0.00006734
0.539025,0.00007644
0.540025,0.00013394
0.541025,0.00003803
0.542025,0.00009701
0.543025,0.00009844
0.544025,0.00004575
0.545025,0.00007970
0.546025,0.00008377
0.547025,0.00006409
0.548025,0.00006129
0.549025,0.00006887
0.550025,0.00010795
0.551025,0.00006402
0.552025,0.00006883
0.553025,0.00007826
0.554025,0.00005291
0.555025,0.00013552
0.556025,0.00011768
0.557025,0.00004162
0.558025,0.00007149
0.559025,0.00007484
0.560025,0.00007914
0.561025,0.00002088
0.562025,0.00010552
0.563025,0.00007717
0.564025,0.00005190
0.565025,0.00007249
0.566025,0.00010766
0.567025,0.00006015
0.568025,0.00009536
0.569025,0.00005208
0.570025,0.00009216
0.571025,0.00007137
0.572025,0.00002464
0.573025,0.00005300
0.574025,0.00011301
0.575025,0.00009193
0.576025,0.00009461
0.577025,0.00004857
0.578025,0.00010538
0.579025,0.00003937
0.580025,0.00007669
0.581025,0.00003943
0.582025,-0.00000600
0.583025,0.00004803
0.584025,0.00005082
0.585025,0.00005964
0.586025,0.00006274
0.587025,0.00008203
0.588025,0.00006940
0.589025,0.00001861
0.590025,0.00002322
0.591025,0.00005297
0.592025,0.00007059
0.593025,0.00003259
0.594025,0.00004568
0.595025,0.00002035
0.596025,0.00004344
0.597025,0.00001204
0.598025,-0.00002088
0.599025,0.00005964
0.600025,0.00003755
0.601025,0.00001601
0.529389,0.00002426
0.530389,-0.00001142
0.531389,-0.00000936
0.532389,0.00002374
0.533389,-0.00002262
0.534389,-0.00004163
0.535389,-0.00000608
0.536389,-0.00001708
0.537389,0.00003100
0.538389,0.00000589
0.539389,0.00001954
0.540389,0.00004599
0.541389,-0.00000716
0.542389,0.00005054
0.543389,-0.00000029
0.544389,-0.00000537
0.545389,0.00004032
0.546389,0.00003350
0.547389,-0.00002885
0.548389,0.00004425
0.549389,0.00004862
0.550389,0.00002108
0.551389,-0.00001907
0.552389,0.00004209
0.553389,0.00002066
0.554389,0.00002960
0.555389,0.00002515
0.556389,-0.00000310
0.557389,-0.00004796
0.558389,0.00004190
0.559389,0.00004848
0.560389,0.00002908
0.561389,-0.00001001
0.562389,0.00002563
0.563389,0.00000315
0.564389,-0.00000853
0.565389,0.00004188
0.566389,-0.00005362
0.567389,0.00002590
0.568389,0.00003045
0.569389,-0.00006787
0.570389,-0.00001766
0.571389,-0.00001584
0.572389,-0.00003595
0.573389,0.00000287
0.574389,-0.00002262
0.575389,0.00002813
0.576389,-0.00001425
0.577389,0.00004637
0.578389,0.00005329
0.579389,-0.00000566
0.580389,0.00000024
0.581389,-0.00001150
0.582389,0.00000445
0.583389,-0.00001609
0.584389,-0.00001728
0.585389,-0.00002080
0.586389,0.00006014
0.587389,0.00000927
0.588389,0.00000081
0.589389,0.00000947
0.590389,0.00003505
0.591389,0.00000532
0.592389,0.00005214
0.593389,-0.00001681
0.594389,-0.00006348
0.595389,-0.00002480
0.596389,-0.00003973
0.597389,0.00001242
0.598389,0.00003736
0.599389,0.00003627
0.600389,-0.00002824
0.601389,0.00006005
0.602389,0.00001865
0.603389,-0.00004918
0.604389,0.00000394
0.605389,0.00001497
0.606389,0.00002362
0.607389,0.00005204
0.608389,0.00003055
0.609389,0.00000698
0.610389,0.00006807
0.611389,0.00000713
0.612389,-0.00002458
0.613389,0.00001365
0.614389,-0.00002255
0.615389,-0.00000503
0.616389,0.00002605
0.617389,0.00000559
0.618389,-0.00002747
0.619389,-0.00000098
0.620389,0.00002185
0.621389,-0.00002246
0.622389,0.00007131
0.623389,-0.00001672
0.624389,-0.00000704
0.625389,0.00000806
0.626389,-0.00006359
0.627389,-0.00000707
0.628389,-0.00000609
0.562541,0.00001814
0.563541,0.00004848
0.564541,-0.00000841
0.565541,-0.00000734
0.566541,0.00003103
0.567541,0.00000441
0.568541,0.00000465
0.569541,0.00003730
0.570541,-0.00005066
0.571541,-0.00004658
0.572541,-0.00001065
0.573541,-0.00004017
0.574541,0.00003186
0.575541,0.00000431
0.576541,-0.00001087
0.577541,-0.00000230
0.578541,0.00006088
0.579541,0.00000324
0.580541,-0.00001227
0.581541,0.00006582
0.582541,0.00000141
0.583541,-0.00004958
0.584541,0.00001533
0.585541,-0.00001174
0.586541,-0.00001524
0.587541,-0.00001326
0.588541,0.00000097
0.589541,0.00001106
0.590541,-0.00000738
0.591541,0.00000690
0.592541,0.00002849
0.593541,-0.00000537
0.594541,0.00004314
0.595541,0.00003142
0.596541,0.00001136
0.597541,0.00002681
0.598541,0.00002101
0.599541,-0.00001416
0.600541,0.00001243
0.601541,0.00000644
0.602541,-0.00000777
0.603541,-0.00000082
0.604541,0.00002940
0.605541,-0.00002057
0.606541,0.00005256
0.607541,0.00007449
0.608541,0.00008835
0.609541,0.00008113
0.610541,0.00005680
0.611541,0.00013207
0.612541,0.00013313
0.613541,0.00019078
0.614541,0.00022510
0.615541,0.00027513
0.616541,0.00033751
0.617541,0.00039147
0.618541,0.00048555
0.619541,0.00055723
0.620541,0.00070918
0.621541,0.00073629
0.622541,0.00083148
0.623541,0.00092065
0.624541,0.00102023
0.625541,0.00104897
0.626541,0.00111243
0.627541,0.00118972
0.628541,0.00117391
0.629541,0.00115636
0.630541,0.00114148
0.631541,0.00113664
0.632541,0.00105173
0.633541,0.00097290
0.634541,0.00091808
0.635541,0.00081885
0.636541,0.00073687
0.637541,0.00059503
0.638541,0.00055963
0.639541,0.00040032
0.640541,0.00030603
0.641541,0.00020202
0.642541,0.00009675
0.643541,0.00007285
0.644541,-0.00000658
0.645541,-0.00002446
0.646541,-0.00002023
0.647541,-0.00012702
0.648541,-0.00014129
0.649541,-0.00023874
0.650541,-0.00022168
0.651541,-0.00021273
0.652541,-0.00030258
0.653541,-0.00026621
0.654541,-0.00026022
0.655541,-0.00021828
0.656541,-0.00028703
0.657541,-0.00028635
0.658541,-0.00019458
0.659541,-0.00024978
0.660541,-0.00021996
0.661541,-0.00020239
0.595861,-0.00022046
0.596861,-0.00012225
0.597861,-0.00012681
0.598861,-0.00014939
0.599861,-0.00010154
0.600861,-0.00013651
0.601861,-0.00012111
0.602861,-0.00009362
0.603861,-0.00003588
0.604861,-0.00001316
0.605861,-0.00000103
0.606861,-0.00000341
0.607861,-0.00006170
0.608861,-0.00001434
0.609861,-0.00001983
0.610861,0.00000307
0.611861,0.00003141
0.612861,0.00000912
0.613861,-0.00004122
0.614861,0.00003143
0.615861,0.00006271
0.616861,0.00000849
0.617861,0.00003188
0.618861,0.00000601
0.619861,0.00001610
0.620861,0.00006578
0.621861,0.00000058
0.622861,0.00008175
0.623861,0.00001180
0.624861,0.00005882
0.625861,0.00004678
0.626861,0.00006026
0.627861,0.00009934
0.628861,0.00003458
0.629861,0.00004173
0.630861,0.00001413
0.631861,0.00011761
0.632861,0.00005467
0.633861,0.00006913
0.634861,0.00005094
0.635861,0.00003629
0.636861,0.00011196
0.637861,0.00009509
0.638861,0.00008941
0.639861,0.00012030
0.640861,0.00010719
0.641861,0.00007380
0.642861,0.00011161
0.643861,0.00009623
0.644861,0.00009115
0.645861,0.00008199
0.646861,0.00009757
0.647861,0.00008897
0.648861,0.00012885
0.649861,0.00015458
0.650861,0.00012157
0.651861,0.00015165
0.652861,0.00010314
0.653861,0.00016025
0.654861,0.00015558
0.655861,0.00007966
0.656861,0.00014907
0.657861,0.00009606
0.658861,0.00014705
0.659861,0.00016449
0.660861,0.00016986
0.661861,0.00013710
0.662861,0.00016098
0.663861,0.00020078
0.664861,0.00016878
0.665861,0.00018270
0.666861,0.00014003
0.667861,0.00018293
0.668861,0.00024278
0.669861,0.00016778
0.670861,0.00021553
0.671861,0.00023893
0.672861,0.00014000
0.673861,0.00023647
0.674861,0.00021427
0.675861,0.00016374
0.676861,0.00022280
0.677861,0.00015518
0.678861,0.00022943
0.679861,0.00019458
0.680861,0.00018252
0.681861,0.00023692
0.682861,0.00021945
0.683861,0.00018418
0.684861,0.00026047
0.685861,0.00021310
0.686861,0.00022078
0.687861,0.00023282
0.688861,0.00020805
0.689861,0.00023066
0.690861,0.00016408
0.691861,0.00024518
0.692861,0.00028250
0.693861,0.00016647
0.694861,0.00020018
0.629265,0.00023242
0.630265,0.00021503
0.631265,0.00011443
0.632265,0.00021325
0.633265,0.00026079
0.634265,0.00022293
0.635265,0.00025568
0.636265,0.00014572
0.637265,0.00024380
0.638265,0.00015781
0.639265,0.00017556
0.640265,0.00021297
0.641265,0.00022517
0.642265,0.00020557
0.643265,0.00024712
0.644265,0.00019569
0.645265,0.00019952
0.646265,0.00021681
0.647265,0.00024680
0.648265,0.00016685
0.649265,0.00021014
0.650265,0.00020459
0.651265,0.00021676
0.652265,0.00018619
0.653265,0.00014679
0.654265,0.00019484
0.655265,0.00009059
0.656265,0.00017631
0.657265,0.00022284
0.658265,0.00020122
0.659265,0.00018985
0.660265,0.00010805
0.661265,0.00015900
0.662265,0.00016022
0.663265,0.00018442
0.664265,0.00011413
0.665265,0.00018568
0.666265,0.00013582
0.667265,0.00007126
0.668265,0.00009804
0.669265,0.00017839
0.670265,0.00010517
0.671265,0.00015379
0.672265,0.00012920
0.673265,0.00010842
0.674265,0.00013427
0.675265,0.00013592
0.676265,0.00009798
0.677265,0.00011445
0.678265,0.00011049
0.679265,0.00007025
0.680265,0.00009161
0.681265,0.00008295
0.682265,0.00014742
0.683265,0.00006314
0.684265,0.00003446
0.685265,0.00007316
0.686265,0.00008289
0.687265,0.00009740
0.688265,0.00004793
0.689265,0.00010964
0.690265,0.00005356
0.691265,0.00010722
0.692265,0.00011888
0.693265,0.00003806
0.694265,0.00007819
0.695265,0.00007551
0.696265,0.00005904
0.697265,0.00003074
0.698265,0.00003312
0.699265,0.00008793
0.700265,0.00006214
0.701265,0.00004109
0.702265,0.00004892
0.703265,0.00003408
0.704265,0.00003139
0.705265,0.00009133
0.706265,0.00008261
0.707265,0.00003745
0.708265,0.00004895
0.709265,0.00001751
0.710265,-0.00003031
0.711265,0.00001057
0.712265,0.00001984
0.713265,-0.00001917
0.714265,0.00003999
0.715265,-0.00000201
0.716265,0.00001388
0.717265,0.00000311
0.718265,0.00001589
0.719265,0.00006087
0.720265,-0.00004475
0.721265,0.00005402
0.722265,0.00007146
0.723265,-0.00000419
0.724265,0.00000468
0.725265,-0.00000980
0.726265,-0.00003314
0.727265,-0.00000274
0.728265,0.00001314
0.662774,-0.00003123
0.663774,-0.00001656
0.664774,0.00001252
0.665774,0.00001793
0.666774,0.00005163
0.667774,0.00003278
0.668774,0.00001530
0.669774,0.00005737
0.670774,0.00002178
0.671774,0.00004165
0.672774,0.00003949
0.673774,0.00004844
0.674774,-0.00001474
0.675774,-0.00002370
0.676774,0.00001500
0.677774,-0.00002391
0.678774,-0.00000443
0.679774,0.00001281
0.680774,-0.00000303
0.681774,-0.00004656
0.682774,0.00001962
0.683774,-0.00003132
0.684774,-0.00000417
0.685774,-0.00000102
0.686774,-0.00003532
0.687774,-0.00001663
0.688774,0.00002526
0.689774,0.00001975
0.690774,0.00000384
0.691774,0.00000031
0.692774,-0.00001048
0.693774,-0.00005091
0.694774,0.00002956
0.695774,0.00001126
0.696774,0.00003558
0.697774,-0.00006116
0.698774,-0.00000153
0.699774,-0.00003800
0.700774,-0.00004402
0.701774,-0.00005901
0.702774,-0.00000261
0.703774,0.00000318
0.704774,-0.00004718
0.705774,-0.00002523
0.706774,0.00002910
0.707774,0.00001524
0.708774,0.00004047
0.709774,-0.00002648
0.710774,0.00003260
0.711774,-0.00002413
0.712774,-0.00002021
0.713774,-0.00002246
0.714774,-0.00002350
0.715774,-0.00003403
0.716774,0.00002285
0.717774,0.00003664
0.718774,-0.00001016
0.719774,0.00002660
0.720774,-0.00000332
0.721774,0.00003473
0.722774,-0.00001132
0.723774,0.00001374
0.724774,-0.00000734
0.725774,0.00000925
0.726774,0.00001402
0.727774,0.00000565
0.728774,-0.00001763
0.729774,-0.00001222
0.730774,-0.00000563
0.731774,-0.00002518
0.732774,-0.00000637
0.733774,0.00002403
0.734774,-0.00001199
0.735774,-0.00001311
0.736774,-0.00004170
0.737774,0.00001226
0.738774,-0.00005330
0.739774,-0.00001363
0.740774,-0.00003874
0.741774,0.00000443
0.742774,-0.00005511
0.743774,0.00001024
0.744774,0.00002908
0.745774,-0.00001434
0.746774,0.00000548
0.747774,0.00002931
0.748774,-0.00006676
0.749774,-0.00000644
0.750774,-0.00002805
0.751774,-0.00003744
0.752774,0.00006637
0.753774,0.00007090
0.754774,-0.00000216
0.755774,-0.00004981
0.756774,0.00003103
0.757774,-0.00002723
0.758774,-0.00000845
0.759774,-0.00004351
0.760774,-0.00001512
0.761774,0.00007101
0.695926,-0.00001761
0.696926,-0.00001687
0.697926,-0.00002055
0.698926,-0.00004409
0.699926,0.00002177
0.700926,0.00004612
0.701926,0.00002567
0.702926,-0.00001341
0.703926,-0.00001086
0.704926,0.00002261
0.705926,-0.00002003
0.706926,0.00001510
0.707926,0.00004628
0.708926,-0.00002944
0.709926,0.00001027
0.710926,-0.00000578
0.711926,0.00003437
0.712926,0.00000257
0.713926,-0.00006059
0.714926,-0.00004925
0.715926,-0.00002724
0.716926,-0.00002376
0.717926,0.00001088
0.718926,-0.00001470
0.719926,-0.00005511
0.720926,0.00001505
0.721926,0.00001947
0.722926,0.00002455
0.723926,0.00001730
0.724926,-0.00000384
0.725926,-0.00000375
0.726926,-0.00003108
0.727926,0.00001644
0.728926,-0.00006088
0.729926,0.00002790
0.730926,0.00001352
0.731926,0.00000107
0.732926,0.00001846
0.733926,0.00002178
0.734926,-0.00001563
0.735926,0.00002191
0.736926,0.00002377
0.737926,0.00007041
0.738926,-0.00003606
0.739926,0.00001039
0.740926,-0.00001693
0.741926,-0.00002185
0.742926,0.00001987
0.743926,-0.00002086
0.744926,0.00000848
0.745926,-0.00001469
0.746926,0.00007150
0.747926,0.00000875
0.748926,0.00000839
0.749926,0.00002454
0.750926,-0.00001108
0.751926,0.00001061
0.752926,0.00003587
0.753926,0.00001024
0.754926,0.00002811
0.755926,0.00000982
0.756926,-0.00003820
0.757926,-0.00001645
0.758926,-0.00002959
0.759926,-0.00001971
0.760926,-0.00000823
0.761926,0.00002977
0.762926,-0.00001498
0.763926,-0.00003873
0.764926,-0.00003591
0.765926,0.00005430
0.766926,-0.00001688
0.767926,-0.00005124
0.768926,0.00000284
0.769926,0.00001026
0.770926,0.00005700
0.771926,0.00001432
0.772926,-0.00003866
0.773926,-0.00001142
0.774926,0.00001723
0.775926,0.00001501
0.776926,0.00005212
0.777926,0.00000147
0.778926,-0.00000065
0.779926,0.00000152
0.780926,-0.00003718
0.781926,-0.00000227
0.782926,0.00002222
0.783926,-0.00003643
0.784926,0.00003366
0.785926,0.00001847
0.786926,0.00001903
0.787926,-0.00000804
0.788926,-0.00002941
0.789926,0.00000790
0.790926,-0.00000766
0.791926,-0.00002022
0.792926,0.00000533
0.793926,0.00001705
0.794926,0.00001503
0.729149,0.00000618
0.730149,-0.00000532
0.731149,0.00001926
0.732149,-0.00002943
0.733149,0.00006091
0.734149,-0.00003351
0.735149,0.00004938
0.736149,0.00001797
0.737149,0.00002555
0.738149,-0.00001959
0.739149,-0.00000969
0.740149,-0.00004834
0.741149,0.00001315
0.742149,0.00000882
0.743149,-0.00005163
0.744149,0.00003528
0.745149,-0.00000429
0.746149,-0.00003591
0.747149,0.00001064
0.748149,0.00001894
0.749149,-0.00001111
0.750149,-0.00003950
0.751149,0.00001010
0.752149,0.00000627
0.753149,0.00001904
0.754149,-0.00001913
0.755149,-0.00005928
0.756149,-0.00001979
0.757149,-0.00005620
0.758149,0.00004311
0.759149,-0.00001449
0.760149,0.00006156
0.761149,-0.00002649
0.762149,-0.00000965
0.763149,0.00001574
0.764149,0.00005407
0.765149,0.00000382
0.766149,0.00001499
0.767149,0.00001400
0.768149,-0.00001912
0.769149,0.00006122
0.770149,0.00000904
0.771149,-0.00003974
0.772149,-0.00006114
0.773149,0.00000742
0.774149,-0.00001620
0.775149,-0.00008737
0.776149,0.00003354
0.777149,0.00003351
0.778149,-0.00002885
0.779149,-0.00003159
0.780149,0.00002097
0.781149,0.00000730
0.782149,-0.00000745
0.783149,-0.00004038
0.784149,-0.00000587
0.785149,0.00001585
0.786149,0.00002123
0.787149,-0.00005605
0.788149,-0.00001985
0.789149,0.00003306
0.790149,0.00001192
0.791149,-0.00002415
0.792149,-0.00005747
0.793149,-0.00002244
0.794149,0.00000596
0.795149,0.00002070
0.796149,-0.00001344
0.797149,0.00004908
0.798149,-0.00000819
0.799149,0.00008405
0.800149,-0.00000833
0.801149,0.00002092
0.802149,-0.00003772
0.803149,-0.00003515
0.804149,0.00006247
0.805149,-0.00002465
0.806149,-0.00000406
0.807149,0.00001358
0.808149,0.00004040
0.809149,-0.00001507
0.810149,0.00008020
0.811149,0.00003367
0.812149,0.00001466
0.813149,-0.00006572
0.814149,0.00002722
0.815149,0.00001853
0.816149,0.00001934
0.817149,-0.00001503
0.818149,0.00003633
0.819149,0.00008236
0.820149,-0.00001223
0.821149,-0.00003067
0.822149,0.00003813
0.823149,0.00001935
0.824149,-0.00003419
0.825149,-0.00000285
0.826149,0.00000375
0.827149,-0.00001291
0.828149,-0.00002818
0.762650,0.00001478
0.763650,0.00007929
0.764650,0.00000926
0.765650,-0.00000746
0.766650,0.00004274
0.767650,-0.00002947
0.768650,-0.00000545
0.769650,0.00003842
0.770650,-0.00001075
0.771650,0.00003523
0.772650,0.00004369
0.773650,0.00001738
0.774650,0.00002390
0.775650,0.00003727
0.776650,0.00000777
0.777650,0.00000051
0.778650,-0.00002304
0.779650,0.00006416
0.780650,0.00001593
0.781650,0.00000238
0.782650,0.00004321
0.783650,-0.00001203
0.784650,0.00001950
0.785650,0.00005312
0.786650,0.00001945
0.787650,0.00002649
0.788650,0.00007494
0.789650,0.00004759
0.790650,0.00003062
0.791650,0.00000975
0.792650,-0.00000948
0.793650,0.00003089
0.794650,0.00004802
0.795650,0.00005992
0.796650,-0.00001267
0.797650,0.00010714
0.798650,0.00004544
0.799650,0.00007187
0.800650,0.00006259
0.801650,0.00004954
0.802650,-0.00000645
0.803650,0.00006958
0.804650,0.00001226
0.805650,-0.00000103
0.806650,-0.00000444
0.807650,0.00004929
0.808650,0.00009387
0.809650,0.00000298
0.810650,0.00005329
0.811650,0.00006835
0.812650,0.00005242
0.813650,0.00004498
0.814650,0.00004313
0.815650,0.00005620
0.816650,0.00003560
0.817650,0.00010583
0.818650,0.00004211
0.819650,0.00006980
0.820650,0.00007702
0.821650,0.00010250
0.822650,0.00007138
0.823650,0.00012025
0.824650,-0.00000674
0.825650,0.00002941
0.826650,0.00007177
0.827650,0.00004098
0.828650,0.00010880
0.829650,0.00007325
0.830650,0.00012944
0.831650,0.00008493
0.832650,0.00003160
0.833650,0.00005972
0.834650,0.00006593
0.835650,0.00004183
0.836650,0.00004355
0.837650,0.00013076
0.838650,0.00001370
0.839650,0.00010213
0.840650,0.00009165
0.841650,0.00005775
0.842650,0.00006206
0.843650,0.00005798
0.844650,0.00010015
0.845650,-0.00001611
0.846650,0.00009789
0.847650,0.00011708
0.848650,0.00009307
0.849650,0.00013002
0.850650,0.00007888
0.851650,0.00010909
0.852650,0.00009909
0.853650,0.00013053
0.854650,0.00007870
0.855650,0.00009365
0.856650,0.00004122
0.857650,0.00009436
0.858650,0.00012059
0.859650,0.00010740
0.860650,0.00003297
0.861650,0.00008239
0.795876,0.00006832
0.796876,0.00007997
0.797876,0.00002671
0.798876,0.00009839
0.799876,0.00007279
0.800876,0.00004978
0.801876,0.00008782
0.802876,0.00006838
0.803876,0.00002220
0.804876,0.00005234
0.805876,0.00006722
0.806876,-0.00000703
0.807876,0.00003860
0.808876,0.00009046
0.809876,0.00009394
0.810876,0.00001328
0.811876,0.00004207
0.812876,0.00005840
0.813876,0.00009256
0.814876,0.00004985
0.815876,0.00002929
0.816876,0.00008926
0.817876,0.00005246
0.818876,0.00006981
0.819876,0.00002366
0.820876,0.00003981
0.821876,0.00000094
0.822876,0.00000709
0.823876,0.00006651
0.824876,-0.00001055
0.825876,0.00009067
0.826876,0.00005054
0.827876,0.00000244
0.828876,0.00001945
0.829876,-0.00001582
0.830876,0.00009028
0.831876,0.00001747
0.832876,-0.00001872
0.833876,0.00000975
0.834876,-0.00003606
0.835876,0.00001056
0.836876,-0.00001807
0.837876,-0.00004341
0.838876,-0.00003806
0.839876,-0.00001145
0.840876,0.00007038
0.841876,0.00007497
0.842876,0.00008173
0.843876,-0.00000841
0.844876,0.00002298
0.845876,-0.00004031
0.846876,0.00002979
0.847876,0.00003855
0.848876,0.00001237
0.849876,-0.00000149
0.850876,0.00004609
0.851876,-0.00000625
0.852876,0.00001507
0.853876,-0.00005081
0.854876,-0.00000153
0.855876,-0.00005125
0.856876,0.00002930
0.857876,-0.00000404
0.858876,-0.00001149
0.859876,-0.00000032
0.860876,-0.00003588
0.861876,0.00000153
0.862876,-0.00006065
0.863876,0.00006274
0.864876,0.00001270
0.865876,-0.00001378
0.866876,-0.00004287
0.867876,0.00000484
0.868876,-0.00003360
0.869876,-0.00004099
0.870876,-0.00004885
0.871876,0.00000721
0.872876,0.00004411
0.873876,0.00002031
0.874876,0.00001441
0.875876,-0.00000381
0.876876,0.00000303
0.877876,-0.00001383
0.878876,-0.00001566
0.879876,0.00002320
0.880876,0.00002417
0.881876,0.00001410
0.882876,-0.00001515
0.883876,0.00000753
0.884876,0.00002481
0.885876,0.00000884
0.886876,0.00003413
0.887876,-0.00001134
0.888876,0.00000343
0.889876,-0.00006119
0.890876,0.00001315
0.891876,0.00000447
0.892876,-0.00002624
0.893876,0.00003115
0.894876,-0.00005382
0.829120,-0.00000734
0.830120,-0.00004085
0.831120,0.00000350
0.832120,-0.00004663
0.833120,0.00001244
0.834120,-0.00000226
0.835120,-0.00001611
0.836120,0.00003088
0.837120,-0.00006846
0.838120,0.00001275
0.839120,0.00000686
0.840120,0.00000826
0.841120,0.00007285
0.842120,-0.00001727
0.843120,0.00000901
0.844120,0.00001493
0.845120,0.00000030
0.846120,-0.00003765
0.847120,0.00001552
0.848120,-0.00002632
0.849120,0.00003025
0.850120,-0.00000889
0.851120,0.00002097
0.852120,-0.00001246
0.853120,0.00000959
0.854120,-0.00000275
0.855120,-0.00004131
0.856120,0.00005189
0.857120,-0.00004718
0.858120,-0.00001747
0.859120,-0.00004595
0.860120,0.00001797
0.861120,-0.00004037
0.862120,-0.00001269
0.863120,0.00002340
0.864120,-0.00002009
0.865120,0.00004113
0.866120,-0.00003065
0.867120,-0.00000489
0.868120,0.00000524
0.869120,-0.00000458
0.870120,-0.00000537
0.871120,-0.00003986
0.872120,-0.00000565
0.873120,-0.00002233
0.874120,-0.00002708
0.875120,-0.00002407
0.876120,-0.00000987
0.877120,0.00002027
0.878120,0.00001015
0.879120,0.00000842
0.880120,0.00002392
0.881120,-0.00001448
0.882120,0.00001476
0.883120,0.00005150
0.884120,-0.00002811
0.885120,-0.00002812
0.886120,-0.00006462
0.887120,0.00000180
0.888120,-0.00003337
0.889120,0.00001941
0.890120,0.00001159
0.891120,-0.00002180
0.892120,-0.00001152
0.893120,-0.00001167
0.894120,-0.00001256
0.895120,0.00001525
0.896120,-0.00008236
0.897120,0.00000296
0.898120,0.00000971
0.899120,-0.00000546
0.900120,0.00000505
0.901120,-0.00001576
0.902120,0.00002477
0.903120,-0.00000219
0.904120,-0.00000169
0.905120,-0.00003879
0.906120,0.00008912
0.907120,0.00004254
0.908120,-0.00001474
0.909120,0.00005120
0.910120,0.00007039
0.911120,0.00008851
0.912120,0.00016753
0.913120,0.00018156
0.914120,0.00021465
0.915120,0.00020929
0.916120,0.00032130
0.917120,0.00038155
0.918120,0.00049689
0.919120,0.00057582
0.920120,0.00061518
0.921120,0.00072082
0.922120,0.00079500
0.923120,0.00081637
0.924120,0.00097515
0.925120,0.00104228
0.926120,0.00118291
0.927120,0.00116202
0.928120,0.00121819
0.862425,0.00115336
0.863425,0.00118228
0.864425,0.00113613
0.865425,0.00109454
0.866425,0.00101438
0.867425,0.00094325
0.868425,0.00085507
0.869425,0.00079061
0.870425,0.00066379
0.871425,0.00052821
0.872425,0.00039630
0.873425,0.00036410
0.874425,0.00025173
0.875425,0.00021583
0.876425,0.00009172
0.877425,0.00005004
0.878425,-0.00002273
0.879425,-0.00006005
0.880425,-0.00009984
0.881425,-0.00022726
0.882425,-0.00016155
0.883425,-0.00021390
0.884425,-0.00018173
0.885425,-0.00022752
0.886425,-0.00025754
0.887425,-0.00027518
0.888425,-0.00023578
0.889425,-0.00026390
0.890425,-0.00019186
0.891425,-0.00027657
0.892425,-0.00021453
0.893425,-0.00022574
0.894425,-0.00017726
0.895425,-0.00025523
0.896425,-0.00018108
0.897425,-0.00014339
0.898425,-0.00011177
0.899425,-0.00014347
0.900425,-0.00011465
0.901425,-0.00013480
0.902425,-0.00007110
0.903425,-0.00006246
0.904425,0.00001520
0.905425,-0.00008539
0.906425,-0.00001271
0.907425,0.00004583
0.908425,-0.00001135
0.909425,-0.00001201
0.910425,-0.00001242
0.911425,0.00002209
0.912425,-0.00001433
0.913425,0.00002037
0.914425,0.00004457
0.915425,0.00002914
0.916425,0.00004523
0.917425,0.00001576
0.918425,0.00005103
0.919425,0.00003609
0.920425,0.00006661
0.921425,0.00008281
0.922425,0.00005963
0.923425,0.00005441
0.924425,0.00003078
0.925425,0.00005618
0.926425,0.00005761
0.927425,0.00006156
0.928425,0.00002068
0.929425,0.00009411
0.930425,0.00005994
0.931425,0.00010437
0.932425,0.00010899
0.933425,0.00005954
0.934425,0.00006382
0.935425,0.00009810
0.936425,0.00008390
0.937425,0.00009009
0.938425,0.00004093
0.939425,0.00010074
0.940425,0.00013611
0.941425,0.00005314
0.942425,0.00012018
0.943425,0.00009475
0.944425,0.00011739
0.945425,0.00014056
0.946425,0.00013330
0.947425,0.00015154
0.948425,0.00011408
0.949425,0.00019485
0.950425,0.00011285
0.951425,0.00014120
0.952425,0.00015463
0.953425,0.00013045
0.954425,0.00008054
0.955425,0.00010217
0.956425,0.00018487
0.957425,0.00013324
0.958425,0.00012972
0.959425,0.00012235
0.960425,0.00014996
0.961425,0.00014212
0.887734,0.00018473
0.888734,0.00019013
0.889734,0.00016009
0.890734,0.00014657
0.891734,0.00021581
0.892734,0.00019905
0.893734,0.00020747
0.894734,0.00014259
0.895734,0.00022496
0.896734,0.00014975
0.897734,0.00022256
0.898734,0.00020537
0.899734,0.00018363
0.900734,0.00020350
0.901734,0.00018620
0.902734,0.00017182
0.903734,0.00018506
0.904734,0.00022859
0.905734,0.00021382
0.906734,0.00022333
0.907734,0.00015990
0.908734,0.00023515
0.909734,0.00020702
0.910734,0.00020253
0.911734,0.00016006
0.912734,0.00020102
0.913734,0.00022179
0.914734,0.00025152
0.915734,0.00023526
0.916734,0.00021914
0.917734,0.00027316
0.918734,0.00024752
0.919734,0.00018185
0.920734,0.00023032
0.921734,0.00025619
0.922734,0.00019313
0.923734,0.00018486
0.924734,0.00021288
0.925734,0.00020144
0.926734,0.00016930
0.927734,0.00020745
0.928734,0.00019199
0.929734,0.00026811
0.930734,0.00022514
0.931734,0.00021790
0.932734,0.00021437
0.933734,0.00021793
0.934734,0.00020765
0.935734,0.00018640
0.936734,0.00014029
0.937734,0.00018632
0.938734,0.00012132
0.939734,0.00021435
0.940734,0.00015706
0.941734,0.00016923
0.942734,0.00020801
0.943734,0.00018704
0.944734,0.00020030
0.945734,0.00017204
0.946734,0.00019225
0.947734,0.00011717
0.948734,0.00018205
0.949734,0.00020002
0.950734,0.00020877
0.951734,0.00017595
0.952734,0.00013952
0.953734,0.00014517
0.954734,0.00018175
0.955734,0.00013769
0.956734,0.00010749
0.957734,0.00008654
0.958734,0.00010546
0.959734,0.00014894
0.960734,0.00013288
0.961734,0.00011049
0.962734,0.00011274
0.963734,0.00010930
0.964734,0.00009314
0.965734,0.00014239
0.966734,0.00015094
0.967734,0.00006358
0.968734,0.00008814
0.969734,0.00012874
0.970734,0.00010229
0.971734,0.00009574
0.972734,0.00009347
0.973734,0.00005568
0.974734,0.00009853
0.975734,0.00013243
0.976734,0.00015580
0.977734,0.00010999
0.978734,0.00008432
0.979734,0.00009581
0.980734,0.00006372
0.981734,0.00006213
0.982734,0.00008587
0.983734,0.00012407
0.984734,0.00002123
0.985734,0.00003158
0.986734,0.00008249
0.921052,0.00009186
0.922052,0.00002579
0.923052,0.00008987
0.924052,-0.00000552
0.925052,0.00001879
0.926052,0.00005540
0.927052,0.00003227
0.928052,0.00004022
0.929052,-0.00000058
0.930052,0.00003474
0.931052,0.00003980
0.932052,0.00004262
0.933052,0.00003675
0.934052,-0.00003253
0.935052,0.00001344
0.936052,0.00008757
0.937052,0.00003981
0.938052,0.00003963
0.939052,-0.00001196
0.940052,0.00002205
0.941052,0.00007021
0.942052,0.00004412
0.943052,-0.00007319
0.944052,0.00000134
0.945052,0.00006442
0.946052,-0.00001876
0.947052,0.00002656
0.948052,0.00003553
0.949052,0.00001045
0.950052,0.00006017
0.951052,0.00001255
0.952052,-0.00000637
0.953052,0.00003031
0.954052,0.00006672
0.955052,0.00003722
0.956052,0.00007922
0.957052,-0.00000311
0.958052,0.00007348
0.959052,0.00001222
0.960052,0.00001661
0.961052,-0.00000604
0.962052,0.00007604
0.963052,-0.00001215
0.964052,0.00002504
0.965052,0.00005583
0.966052,0.00000817
0.967052,-0.00000612
0.968052,0.00000958
0.969052,0.00003646
0.970052,0.00000459
0.971052,-0.00002804
0.972052,0.00001826
0.973052,-0.00001940
0.974052,0.00000750
0.975052,-0.00001534
0.976052,0.00001274
0.977052,0.00000786
0.978052,0.00002459
0.979052,0.00004388
0.980052,-0.00001635
0.981052,0.00001307
0.982052,-0.00001814
0.983052,0.00001713
0.984052,0.00004306
0.985052,-0.00000030
0.986052,-0.00001565
0.987052,-0.00000092
0.988052,0.00005082
0.989052,0.00001760
0.990052,0.00001914
0.991052,0.00009442
0.992052,0.00000077
0.993052,-0.00002178
0.994052,-0.00004259
0.995052,0.00000285
0.996052,-0.00000394
0.997052,0.00003327
0.998052,0.00004934
0.999052,0.00002867
1.000052,-0.00002078
1.001052,-0.00005584
1.002052,0.00002871
1.003052,0.00004046
1.004052,0.00000930
1.005052,0.00007240
1.006052,-0.00003819
1.007052,0.00000807
1.008052,0.00001659
1.009052,0.00000976
1.010052,0.00001647
1.011052,0.00001514
1.012052,0.00003195
1.013052,-0.00003212
1.014052,0.00001364
1.015052,-0.00001709
1.016052,0.00000771
1.017052,0.00003154
1.018052,-0.00001427
1.019052,-0.00001042
1.020052,-0.00001171
0.953767,0.00005214
0.954767,-0.00000333
0.955767,-0.00002114
0.956767,-0.00001082
0.957767,0.00000863
0.958767,-0.00002151
0.959767,-0.00004139
0.960767,-0.00003778
0.961767,0.00002117
0.962767,-0.00001658
0.963767,-0.00001965
0.964767,-0.00002283
0.965767,-0.00005735
0.966767,0.00001526
0.967767,0.00001932
0.968767,-0.00002459
0.969767,-0.00002255
0.970767,0.00002234
0.971767,0.00002865
0.972767,-0.00002735
0.973767,0.00005557
0.974767,0.00002581
0.975767,0.00001253
0.976767,0.00001971
0.977767,0.00000494
0.978767,-0.00001406
0.979767,-0.00001411
0.980767,0.00005765
0.981767,-0.00002021
0.982767,0.00000599
0.983767,-0.00002299
0.984767,0.00005331
0.985767,0.00003907
0.986767,-0.00002857
0.987767,-0.00005189
0.988767,0.00000876
0.989767,0.00003154
0.990767,-0.00000485
0.991767,-0.00000075
0.992767,-0.00000859
0.993767,-0.00005373
0.994767,-0.00001360
0.995767,-0.00000839
0.996767,-0.00001216
0.997767,-0.00003301
0.998767,-0.00001391
0.999767,-0.00001466
1.000767,0.00001609
1.001767,0.00000563
1.002767,-0.00003031
1.003767,-0.00007244
1.004767,-0.00001314
1.005767,0.00004517
1.006767,-0.00003462
1.007767,0.00002013
1.008767,0.00000556
1.009767,-0.00002079
1.010767,-0.00004353
1.011767,0.00005519
1.012767,-0.00000461
1.013767,-0.00002200
1.014767,-0.00000657
1.015767,-0.00002299
1.016767,-0.00006152
1.017767,0.00002182
1.018767,0.00000162
1.019767,0.00000663
1.020767,-0.00001164
1.021767,-0.00004383
1.022767,-0.00001677
1.023767,0.00001469
1.024767,0.00006174
1.025767,0.00000482
1.026767,0.00002047
1.027767,0.00001658
1.028767,-0.00003401
1.029767,-0.00002440
1.030767,-0.00002503
1.031767,-0.00001322
1.032767,-0.00000534
1.033767,0.00001239
1.034767,0.00003494
1.035767,0.00000157
1.036767,0.00004194
1.037767,-0.00000237
1.038767,0.00005102
1.039767,-0.00000302
1.040767,-0.00000913
1.041767,-0.00000293
1.042767,-0.00004816
1.043767,-0.00000236
1.044767,-0.00000644
1.045767,0.00000684
1.046767,0.00003126
1.047767,-0.00000582
1.048767,0.00008651
1.049767,0.00001387
1.050767,0.00000779
1.051767,0.00001085
1.052767,0.00001001
0.987327,-0.00002265
0.988327,0.00002133
0.989327,0.00001700
0.990327,-0.00003200
0.991327,0.00003406
0.992327,0.00005939
0.993327,0.00000626
0.994327,0.00007449
0.995327,0.00001122
0.996327,0.00005938
0.997327,-0.00002294
0.998327,0.00004843
0.999327,-0.00002004
1.000327,-0.00004442
1.001327,0.00000553
1.002327,0.00000624
1.003327,-0.00000593
1.004327,0.00011608
1.005327,-0.00002305
1.006327,-0.00003383
1.007327,-0.00008685
1.008327,-0.00000241
1.009327,-0.00004391
1.010327,-0.00000212
1.011327,0.00004445
1.012327,0.00003455
1.013327,0.00000539
1.014327,-0.00006193
1.015327,0.00000139
1.016327,0.00001189
1.017327,-0.00007617
1.018327,-0.00000088
1.019327,0.00004567
1.020327,-0.00000883
1.021327,-0.00003172
1.022327,0.00005028
1.023327,0.00002356
1.024327,0.00003029
1.025327,0.00005524
1.026327,0.00001445
1.027327,-0.00004390
1.028327,-0.00003906
1.029327,0.00001810
1.030327,-0.00000527
1.031327,0.00004424
1.032327,0.00000132
1.033327,-0.00002407
1.034327,0.00002523
1.035327,-0.00001110
1.036327,-0.00000859
1.037327,0.00001474
1.038327,0.00001072
1.039327,0.00000086
1.040327,0.00001518
1.041327,-0.00001995
1.042327,-0.00001996
1.043327,0.00001730
1.044327,-0.00002458
1.045327,0.00007540
1.046327,0.00001998
1.047327,-0.00001919
1.048327,-0.00001221
1.049327,-0.00002006
1.050327,-0.00004576
1.051327,0.00003329
1.052327,-0.00000299
1.053327,-0.00001051
1.054327,0.00002534
1.055327,0.00001012
1.056327,-0.00002469
1.057327,0.00002015
1.058327,0.00006464
1.059327,-0.00001305
1.060327,-0.00002761
1.061327,-0.00005434
1.062327,-0.00000225
1.063327,-0.00002215
1.064327,-0.00003366
1.065327,-0.00004977
1.066327,-0.00001021
1.067327,-0.00001386
1.068327,0.00000063
1.069327,0.00002817
1.070327,0.00003579
1.071327,-0.00003076
1.072327,0.00004623
1.073327,0.00006874
1.074327,0.00007182
1.075327,-0.00001494
1.076327,0.00001289
1.077327,-0.00002783
1.078327,-0.00000560
1.079327,-0.00003626
1.080327,-0.00005623
1.081327,-0.00006453
1.082327,0.00004068
1.083327,-0.00001927
1.084327,0.00000431
1.085327,0.00000020
1.086327,-0.00005975
1.020812,-0.00002130
1.021812,-0.00000945
1.022812,0.00000180
1.023812,0.00001114
1.024812,0.00005056
1.025812,0.00002404
1.026812,-0.00004307
1.027812,0.00000433
1.028812,0.00002252
1.029812,0.00001628
1.030812,-0.00001876
1.031812,-0.00004811
1.032812,0.00000834
1.033812,-0.00002086
1.034812,0.00001574
1.035812,0.00001834
1.036812,-0.00000913
1.037812,-0.00002271
1.038812,0.00001118
1.039812,0.00002020
1.040812,-0.00000201
1.041812,0.00001969
1.042812,-0.00002989
1.043812,-0.00000207
1.044812,0.00001567
1.045812,-0.00003550
1.046812,0.00001627
1.047812,-0.00002467
1.048812,-0.00003310
1.049812,-0.00002110
1.050812,-0.00001604
1.051812,0.00000131
1.052812,-0.00004576
1.053812,-0.00002110
1.054812,-0.00001204
1.055812,0.00002661
1.056812,0.00001892
1.057812,-0.00000251
1.058812,0.00002053
1.059812,-0.00005350
1.060812,0.00003834
1.061812,-0.00000207
1.062812,0.00003905
1.063812,0.00002288
1.064812,-0.00006073
1.065812,-0.00000730
1.066812,-0.00002803
1.067812,-0.00000069
1.068812,-0.00001349
1.069812,0.00003018
1.070812,-0.00000875
1.071812,0.00002714
1.072812,0.00001030
1.073812,0.00000508
1.074812,-0.00002061
1.075812,-0.00000493
1.076812,0.00003061
1.077812,-0.00000142
1.078812,0.00005261
1.079812,0.00005884
1.080812,-0.00001213
1.081812,0.00002911
1.082812,0.00005451
1.083812,0.00001064
1.084812,0.00000479
1.085812,0.00000972
1.086812,-0.00003232
1.087812,-0.00000310
1.088812,0.00001384
1.089812,-0.00003106
1.090812,0.00000523
1.091812,-0.00002206
1.092812,0.00000333
1.093812,-0.00002860
1.094812,0.00007859
1.095812,0.00011464
1.096812,0.00003781
1.097812,0.00001741
1.098812,0.00006686
1.099812,0.00001284
1.100812,0.00000131
1.101812,0.00007306
1.102812,0.00004588
1.103812,0.00002290
1.104812,0.00009886
1.105812,0.00006156
1.106812,0.00005741
1.107812,0.00002252
1.108812,0.00002271
1.109812,0.00004480
1.110812,0.00003356
1.111812,0.00007216
1.112812,0.00002452
1.113812,0.00002881
1.114812,0.00003215
1.115812,0.00007796
1.116812,0.00005712
1.117812,0.00004631
1.118812,0.00004839
1.119812,0.00010341
1.054259,0.00005181
1.055259,0.00009008
1.056259,0.00009038
1.057259,0.00008653
1.058259,0.00006822
1.059259,0.00004125
1.060259,0.00004816
1.061259,0.00006504
1.062259,0.00008580
1.063259,0.00007659
1.064259,0.00006944
1.065259,0.00005703
1.066259,0.00003967
1.067259,0.00010399
1.068259,-0.00000804
1.069259,0.00006130
1.070259,0.00002244
1.071259,0.00006691
1.072259,0.00007300
1.073259,0.00010190
1.074259,0.00003681
1.075259,0.00005551
1.076259,0.00010087
1.077259,0.00008800
1.078259,0.00006039
1.079259,0.00001745
1.080259,0.00009319
1.081259,0.00008996
1.082259,0.00004710
1.083259,0.00008176
1.084259,0.00010637
1.085259,0.00006195
1.086259,0.00009446
1.087259,0.00010747
1.088259,0.00008655
1.089259,0.00004014
1.090259,-0.00000134
1.091259,0.00008598
1.092259,0.00000998
1.093259,0.00010817
1.094259,0.00004096
1.095259,0.00008770
1.096259,0.00005743
1.097259,0.00003290
1.098259,0.00007863
1.099259,0.00003991
1.100259,0.00007267
1.101259,0.00005554
1.102259,0.00003629
1.103259,0.00005408
1.104259,0.00005588
1.105259,0.00007192
1.106259,0.00004405
1.107259,-0.00003325
1.108259,0.00007713
1.109259,0.00003146
1.110259,0.00006752
1.111259,0.00001834
1.112259,0.00003348
1.113259,-0.00000028
1.114259,0.00004059
1.115259,0.00009734
1.116259,0.00011044
1.117259,0.00001128
1.118259,0.00002523
1.119259,0.00002857
1.120259,-0.00001929
1.121259,0.00005056
1.122259,0.00003523
1.123259,-0.00005018
1.124259,-0.00003977
1.125259,0.00002083
1.126259,-0.00001547
1.127259,0.00005634
1.128259,0.00005181
1.129259,0.00000910
1.130259,-0.00002137
1.131259,0.00005384
1.132259,0.00000896
1.133259,0.00000100
1.134259,-0.00001149
1.135259,0.00003894
1.136259,-0.00000309
1.137259,0.00006530
1.138259,-0.00000423
1.139259,0.00007990
1.140259,-0.00003766
1.141259,0.00002552
1.142259,0.00006324
1.143259,0.00003351
1.144259,0.00002219
1.145259,0.00000444
1.146259,0.00000140
1.147259,0.00001586
1.148259,-0.00003011
1.149259,-0.00001513
1.150259,0.00002744
1.151259,0.00000265
1.152259,-0.00003546
1.153259,0.00001384
1.080213,-0.00007445
1.081213,-0.00002092
1.082213,0.00001173
1.083213,-0.00000632
1.084213,-0.00003249
1.085213,0.00001058
1.086213,-0.00000091
1.087213,0.00004511
1.088213,0.00002712
1.089213,-0.00001235
1.090213,0.00000239
1.091213,0.00001668
1.092213,0.00002672
1.093213,0.00001430
1.094213,-0.00001725
1.095213,0.00000224
1.096213,0.00001866
1.097213,-0.00001491
1.098213,-0.00000576
1.099213,-0.00001693
1.100213,0.00000793
1.101213,0.00010439
1.102213,0.00000147
1.103213,0.00001035
1.104213,-0.00007544
1.105213,0.00001093
1.106213,0.00000535
1.107213,0.00003248
1.108213,0.00002382
1.109213,0.00005917
1.110213,0.00003112
1.111213,-0.00001496
1.112213,-0.00004299
1.113213,-0.00000994
1.114213,0.00002524
1.115213,0.00000986
1.116213,-0.00000642
1.117213,-0.00005256
1.118213,-0.00002350
1.119213,0.00001655
1.120213,0.00002448
1.121213,0.00002166
1.122213,0.00000037
1.123213,0.00003763
1.124213,-0.00001452
1.125213,0.00001205
1.126213,-0.00001199
1.127213,-0.00003490
1.128213,0.00001404
1.129213,-0.00003230
1.130213,0.00002135
1.131213,-0.00002126
1.132213,-0.00003633
1.133213,-0.00004919
1.134213,-0.00002623
1.135213,0.00003144
1.136213,-0.00002736
1.137213,0.00005408
1.138213,0.00001581
1.139213,-0.00000166
1.140213,0.00000832
1.141213,-0.00005533
1.142213,0.00000058
1.143213,-0.00001278
1.144213,-0.00006004
1.145213,-0.00001865
1.146213,-0.00001006
1.147213,0.00002118
1.148213,-0.00002905
1.149213,0.00004154
1.150213,0.00000973
1.151213,0.00003047
1.152213,0.00000205
1.153213,0.00003828
1.154213,0.00001943
1.155213,0.00004268
1.156213,0.00003548
1.157213,-0.00003458
1.158213,0.00003987
1.159213,0.00000301
1.160213,0.00001249
1.161213,-0.00004381
1.162213,-0.00001607
1.163213,0.00003410
1.164213,-0.00003785
1.165213,-0.00000848
1.166213,-0.00000345
1.167213,0.00000566
1.168213,-0.00001028
1.169213,-0.00000957
1.170213,0.00005649
1.171213,0.00000276
1.172213,-0.00002013
1.173213,-0.00002246
1.174213,-0.00003145
1.175213,0.00005309
1.176213,0.00001332
1.177213,-0.00001771
1.178213,0.00001622
1.179213,-0.00005066
1.112787,-0.00002240
1.113787,0.00002223
1.114787,-0.00002017
1.115787,-0.00001483
1.116787,-0.00002446
1.117787,-0.00002873
1.118787,0.00002666
1.119787,0.00000701
1.120787,-0.00008316
1.121787,0.00003370
1.122787,0.00002990
1.123787,0.00003995
1.124787,0.00004458
1.125787,0.00007295
1.126787,0.00008734
1.127787,0.00010246
1.128787,0.00004899
1.129787,0.00013367
1.130787,0.00011312
1.131787,0.00024318
1.132787,0.00030674
1.133787,0.00037037
1.134787,0.00047095
1.135787,0.00055621
1.136787,0.00058072
1.137787,0.00066185
1.138787,0.00075415
1.139787,0.00087448
1.140787,0.00094729
1.141787,0.00107170
1.142787,0.00107536
1.143787,0.00115667
1.144787,0.00115549
1.145787,0.00119152
1.146787,0.00116772
1.147787,0.00114217
1.148787,0.00114503
1.149787,0.00107226
1.150787,0.00095215
1.151787,0.00090123
1.152787,0.00089637
1.153787,0.00067347
1.154787,0.00064980
1.155787,0.00052284
1.156787,0.00035825
1.157787,0.00028123
1.158787,0.00023745
1.159787,0.00014777
1.160787,0.00002622
1.161787,-0.00002041
1.162787,-0.00004801
1.163787,-0.00011099
1.164787,-0.00013188
1.165787,-0.00016658
1.166787,-0.00021306
1.167787,-0.00023845
1.168787,-0.00023050
1.169787,-0.00028073
1.170787,-0.00022568
1.171787,-0.00026949
1.172787,-0.00034732
1.173787,-0.00024259
1.174787,-0.00022911
1.175787,-0.00021763
1.176787,-0.00022085
1.177787,-0.00020850
1.178787,-0.00019626
1.179787,-0.00018714
1.180787,-0.00017189
1.181787,-0.00011099
1.182787,-0.00018741
1.183787,-0.00011339
1.184787,-0.00012551
1.185787,-0.00004087
1.186787,-0.00007504
1.187787,-0.00000562
1.188787,-0.00008430
1.189787,-0.00008291
1.190787,-0.00003438
1.191787,0.00000049
1.192787,0.00001890
1.193787,0.00003377
1.194787,0.00001193
1.195787,0.00001339
1.196787,0.00001288
1.197787,0.00001124
1.198787,-0.00004933
1.199787,0.00000944
1.200787,0.00008390
1.201787,0.00004475
1.202787,0.00006989
1.203787,0.00005120
1.204787,0.00009324
1.205787,0.00005527
1.206787,0.00008269
1.207787,0.00009060
1.208787,0.00009190
1.209787,0.00003729
1.210787,0.00007116
1.211787,0.00001570
1.137822,0.00005737
1.138822,0.00005648
1.139822,0.00008701
1.140822,0.00005822
1.141822,0.00007491
1.142822,0.00005201
1.143822,0.00006799
1.144822,0.00006610
1.145822,0.00007868
1.146822,0.00011126
1.147822,0.00010511
1.148822,0.00002710
1.149822,0.00008440
1.150822,0.00012358
1.151822,0.00012546
1.152822,0.00009202
1.153822,0.00007020
1.154822,0.00007990
1.155822,0.00008379
1.156822,0.00012825
1.157822,0.00008039
1.158822,0.00008644
1.159822,0.00013303
1.160822,0.00015261
1.161822,0.00012098
1.162822,0.00010399
1.163822,0.00015661
1.164822,0.00009830
1.165822,0.00012179
1.166822,0.00012096
1.167822,0.00018300
1.168822,0.00015498
1.169822,0.00015375
1.170822,0.00015663
1.171822,0.00018676
1.172822,0.00019119
1.173822,0.00016123
1.174822,0.00019272
1.175822,0.00017955
1.176822,0.00016071
1.177822,0.00014854
1.178822,0.00019530
1.179822,0.00017326
1.180822,0.00015049
1.181822,0.00011381
1.182822,0.00018198
1.183822,0.00016265
1.184822,0.00020271
1.185822,0.00014008
1.186822,0.00025798
1.187822,0.00014523
1.188822,0.00024172
1.189822,0.00020079
1.190822,0.00016210
1.191822,0.00018850
1.192822,0.00021295
1.193822,0.00015954
1.194822,0.00022666
1.195822,0.00017082
1.196822,0.00019593
1.197822,0.00023263
1.198822,0.00021353
1.199822,0.00022261
1.200822,0.00021355
1.201822,0.00020918
1.202822,0.00021739
1.203822,0.00022662
1.204822,0.00021429
1.205822,0.00022693
1.206822,0.00018840
1.207822,0.00022310
1.208822,0.00020325
1.209822,0.00023251
1.210822,0.00017093
1.211822,0.00023578
1.212822,0.00020717
1.213822,0.00014894
1.214822,0.00022748
1.215822,0.00018188
1.216822,0.00020112
1.217822,0.00025048
1.218822,0.00021020
1.219822,0.00014835
1.220822,0.00016813
1.221822,0.00021035
1.222822,0.00020515
1.223822,0.00020819
1.224822,0.00021795
1.225822,0.00021777
1.226822,0.00016554
1.227822,0.00023934
1.228822,0.00014414
1.229822,0.00015479
1.230822,0.00014554
1.231822,0.00021603
1.232822,0.00021303
1.233822,0.00019187
1.234822,0.00015770
1.235822,0.00018339
1.236822,0.00015155
1.170118,0.00014730
1.171118,0.00013286
1.172118,0.00011327
1.173118,0.00012160
1.174118,0.00017026
1.175118,0.00011406
1.176118,0.00012260
1.177118,0.00015581
1.178118,0.00014952
1.179118,0.00011929
1.180118,0.00017435
1.181118,0.00016713
1.182118,0.00012426
1.183118,0.00003561
1.184118,0.00011704
1.185118,0.00005926
1.186118,0.00007000
1.187118,-0.00000148
1.188118,0.00006334
1.189118,0.00009839
1.190118,0.00010682
1.191118,0.00006732
1.192118,0.00008260
1.193118,0.00009250
1.194118,0.00006690
1.195118,0.00011426
1.196118,0.00007800
1.197118,0.00006692
1.198118,0.00005982
1.199118,0.00002679
1.200118,0.00015509
1.201118,0.00008588
1.202118,0.00006883
1.203118,0.00009726
1.204118,0.00008332
1.205118,0.00007744
1.206118,-0.00000735
1.207118,0.00005307
1.208118,0.00004649
1.209118,0.00004477
1.210118,0.00004874
1.211118,0.00001326
1.212118,0.00002178
1.213118,0.00002128
1.214118,0.00006180
1.215118,0.00001503
1.216118,0.00004332
1.217118,-0.00001529
1.218118,0.00006368
1.219118,0.00003324
1.220118,0.00002804
1.221118,0.00001161
1.222118,0.00003286
1.223118,0.00006378
1.224118,0.00001431
1.225118,0.00004190
1.226118,-0.00001667
1.227118,0.00001266
1.228118,-0.00001427
1.229118,-0.00002430
1.230118,0.00001947
1.231118,0.00004760
1.232118,0.00011700
1.233118,0.00003026
1.234118,-0.00000201
1.235118,0.00005043
1.236118,-0.00001319
1.237118,0.00000217
1.238118,-0.00001510
1.239118,-0.00001246
1.240118,-0.00000572
1.241118,0.00000136
1.242118,0.00002864
1.243118,0.00001095
1.244118,-0.00004699
1.245118,0.00002205
1.246118,0.00003051
1.247118,-0.00000269
1.248118,0.00002224
1.249118,-0.00002724
1.250118,0.00003121
1.251118,0.00000674
1.252118,-0.00001058
1.253118,0.00004005
1.254118,-0.00002179
1.255118,-0.00001997
1.256118,0.00001778
1.257118,0.00004486
1.258118,0.00002824
1.259118,-0.00002614
1.260118,-0.00003120
1.261118,-0.00005026
1.262118,-0.00001205
1.263118,0.00000906
1.264118,0.00008965
1.265118,0.00002945
1.266118,0.00002530
1.267118,-0.00006695
1.268118,0.00003587
1.269118,0.00002735
1.213050,-0.00005371
1.214050,-0.00002499
1.215050,0.00000464
1.216050,-0.00002841
1.217050,0.00002500
1.218050,0.00002304
1.219050,-0.00000266
1.220050,0.00001525
1.221050,0.00001445
1.222050,0.00002671
1.223050,-0.00002267
1.224050,0.00002084
1.225050,0.00000913
1.226050,-0.00000011
1.227050,-0.00002409
1.228050,0.00001250
1.229050,-0.00002073
1.230050,0.00003304
1.231050,0.00002625
1.232050,-0.00003405
1.233050,0.00001743
1.234050,-0.00000986
1.235050,0.00004020
1.236050,-0.00002400
1.237050,-0.00002528
1.238050,-0.00000598
1.239050,-0.00003328
1.240050,0.00003159
1.241050,0.00001482
1.242050,-0.00003316
1.243050,0.00002979
1.244050,0.00004799
1.245050,-0.00000531
1.246050,-0.00004440
1.247050,-0.00007589
1.248050,0.00003738
1.249050,-0.00004252
1.250050,0.00005640
1.251050,-0.00000927
1.252050,-0.00003993
1.253050,0.00000968
1.254050,-0.00003147
1.255050,-0.00003264
1.256050,-0.00004320
1.257050,-0.00005120
1.258050,0.00003495
1.259050,0.00001077
1.260050,0.00006078
1.261050,-0.00001113
1.262050,0.00003298
1.263050,0.00006215
1.264050,-0.00001686
1.265050,-0.00003117
1.266050,0.00008695
1.267050,0.00004406
1.268050,0.00001937
1.269050,-0.00003099
1.270050,-0.00002572
1.271050,0.00001492
1.272050,0.00002371
1.273050,0.00006695
1.274050,-0.00005764
1.275050,-0.00000895
1.276050,-0.00001825
1.277050,-0.00003562
1.278050,0.00003036
1.279050,0.00002331
1.280050,0.00000479
1.281050,-0.00003951
1.282050,-0.00000457
1.283050,-0.00006091
1.284050,-0.00001975
1.285050,0.00005122
1.286050,0.00000270
1.287050,-0.00001982
1.288050,0.00000283
1.289050,0.00001607
1.290050,0.00003094
1.291050,0.00006013
1.292050,-0.00002195
1.293050,-0.00003848
1.294050,0.00001464
1.295050,0.00000372
1.296050,-0.00002320
1.297050,0.00002274
1.298050,-0.00001866
1.299050,0.00000474
1.300050,-0.00002535
1.301050,0.00002669
1.302050,0.00002547
1.303050,0.00004615
1.304050,0.00004129
1.305050,-0.00002672
1.306050,-0.00005926
1.307050,-0.00005509
1.308050,0.00004111
1.309050,0.00001568
1.310050,0.00000929
1.311050,-0.00003076
1.312050,-0.00002341
1.234980,0.00005893
1.235980,0.00005606
1.236980,-0.00001611
1.237980,0.00002150
1.238980,0.00002038
1.239980,0.00003565
1.240980,0.00004729
1.241980,0.00002068
1.242980,-0.00006911
1.243980,0.00001417
1.244980,0.00000631
1.245980,-0.00001323
1.246980,-0.00001265
1.247980,0.00002393
1.248980,0.00002091
1.249980,-0.00003347
1.250980,-0.00003397
1.251980,-0.00001476
1.252980,0.00001572
1.253980,0.00001313
1.254980,0.00004387
1.255980,-0.00002944
1.256980,-0.00002356
1.257980,0.00001034
1.258980,-0.00004091
1.259980,-0.00005719
1.260980,-0.00001098
1.261980,-0.00005340
1.262980,0.00004833
1.263980,-0.00001007
1.264980,-0.00002434
1.265980,-0.00003261
1.266980,-0.00004499
1.267980,0.00002341
1.268980,0.00004399
1.269980,0.00002067
1.270980,0.00004237
1.271980,0.00004682
1.272980,0.00004383
1.273980,0.00001217
1.274980,-0.00000116
1.275980,0.00003887
1.276980,0.00001082
1.277980,-0.00001311
1.278980,-0.00002910
1.279980,0.00002191
1.280980,0.00004245
1.281980,0.00004677
1.282980,0.00003549
1.283980,-0.00000403
1.284980,-0.00000975
1.285980,-0.00000059
1.286980,-0.00003602
1.287980,0.00004125
1.288980,0.00003113
1.289980,0.00003245
1.290980,-0.00002366
1.291980,0.00000327
1.292980,-0.00002845
1.293980,0.00001313
1.294980,-0.00002803
1.295980,-0.00004033
1.296980,0.00009490
1.297980,0.00003429
1.298980,0.00002899
1.299980,0.00000424
1.300980,0.00002557
1.301980,0.00006439
1.302980,0.00000105
1.303980,-0.00003092
1.304980,0.00006259
1.305980,-0.00002723
1.306980,-0.00000123
1.307980,-0.00000392
1.308980,-0.00003696
1.309980,-0.00001054
1.310980,0.00002320
1.311980,0.00000066
1.312980,0.00002717
1.313980,-0.00000933
1.314980,-0.00000697
1.315980,-0.00004171
1.316980,0.00001406
1.317980,-0.00000295
1.318980,0.00005038
1.319980,-0.00001383
1.320980,0.00004872
1.321980,-0.00002968
1.322980,0.00001973
1.323980,0.00005361
1.324980,-0.00000766
1.325980,-0.00001691
1.326980,-0.00002056
1.327980,0.00005228
1.328980,-0.00001350
1.329980,-0.00000192
1.330980,0.00002038
1.331980,-0.00002930
1.332980,0.00000396
1.333980,-0.00001427
1.275919,0.00000839
1.276919,0.00001038
1.277919,-0.00002084
1.278919,-0.00000477
1.279919,0.00001146
1.280919,0.00003213
1.281919,-0.00003730
1.282919,0.00004655
1.283919,-0.00004749
1.284919,-0.00001301
1.285919,0.00002060
1.286919,-0.00004367
1.287919,-0.00001355
1.288919,-0.00002777
1.289919,-0.00002554
1.290919,0.00004094
1.291919,0.00000153
1.292919,-0.00002214
1.293919,0.00003282
1.294919,-0.00003759
1.295919,-0.00004084
1.296919,-0.00000794
1.297919,0.00003130
1.298919,0.00002743
1.299919,-0.00005144
1.300919,0.00003062
1.301919,-0.00000205
1.302919,0.00000022
1.303919,0.00002627
1.304919,0.00004040
1.305919,0.00000814
1.306919,-0.00003200
1.307919,-0.00000466
1.308919,-0.00000080
1.309919,-0.00001141
1.310919,0.00002157
1.311919,0.00003981
1.312919,-0.00000878
1.313919,-0.00004090
1.314919,0.00005972
1.315919,0.00004768
1.316919,0.00002567
1.317919,-0.00002618
1.318919,0.00001487
1.319919,0.00002253
1.320919,-0.00000561
1.321919,-0.00005577
1.322919,0.00000454
1.323919,-0.00001476
1.324919,0.00000665
1.325919,0.00007183
1.326919,0.00002724
1.327919,-0.00001372
1.328919,0.00000309
1.329919,0.00006571
1.330919,-0.00002903
1.331919,0.00000708
1.332919,0.00002632
1.333919,-0.00000362
1.334919,0.00002688
1.335919,-0.00002095
1.336919,0.00003149
1.337919,0.00000494
1.338919,-0.00000504
1.339919,-0.00001811
1.340919,-0.00001707
1.341919,0.00000478
1.342919,0.00005612
1.343919,0.00002750
1.344919,0.00006260
1.345919,-0.00002222
1.346919,-0.00001988
1.347919,0.00007385
1.348919,0.00001437
1.349919,0.00004328
1.350919,0.00001391
1.351919,-0.00002329
1.352919,-0.00000849
1.353919,0.00004731
1.354919,0.00000028
1.355919,0.00004184
1.356919,0.00003582
1.357919,-0.00003764
1.358919,0.00002108
1.359919,0.00004909
1.360919,-0.00000291
1.361919,-0.00000095
1.362919,0.00003155
1.363919,0.00000302
1.364919,0.00000975
1.365919,0.00004139
1.366919,0.00004940
1.367919,-0.00002949
1.368919,0.00007455
1.369919,0.00000758
1.370919,0.00003014
1.371919,-0.00001801
1.372919,-0.00001013
1.373919,0.00007894
1.374919,0.00002504
1.307761,0.00002441
1.308761,0.00001019
1.309761,0.00001098
1.310761,0.00000255
1.311761,0.00006693
1.312761,-0.00000129
1.313761,0.00004033
1.314761,0.00002834
1.315761,0.00002013
1.316761,0.00005058
1.317761,0.00006452
1.318761,0.00002743
1.319761,-0.00001733
1.320761,0.00002150
1.321761,0.00003707
1.322761,0.00001933
1.323761,-0.00003504
1.324761,0.00006707
1.325761,0.00003438
1.326761,0.00001993
1.327761,0.00008232
1.328761,0.00003852
1.329761,0.00002040
1.330761,0.00006446
1.331761,0.00010444
1.332761,0.00009559
1.333761,0.00003555
1.334761,-0.00002777
1.335761,0.00011295
1.336761,0.00006811
1.337761,0.00009502
1.338761,0.00011713
1.339761,0.00002421
1.340761,0.00010010
1.341761,0.00009203
1.342761,0.00008424
1.343761,0.00011057
1.344761,0.00003769
1.345761,0.00007630
1.346761,0.00009797
1.347761,0.00004604
1.348761,0.00003296
1.349761,0.00003050
1.350761,0.00008849
1.351761,0.00003409
1.352761,0.00009931
1.353761,0.00006113
1.354761,0.00005151
1.355761,0.00008832
1.356761,0.00003710
1.357761,0.00010586
1.358761,0.00005919
1.359761,0.00009089
1.360761,0.00008405
1.361761,0.00009539
1.362761,0.00006214
1.363761,0.00001768
1.364761,0.00008467
1.365761,0.00005923
1.366761,0.00014050
1.367761,0.00009350
1.368761,0.00006032
1.369761,0.00004969
1.370761,0.00004201
1.371761,0.00007627
1.372761,0.00004061
1.373761,0.00005300
1.374761,0.00009165
1.375761,0.00011650
1.376761,0.00003718
1.377761,0.00006654
1.378761,0.00001919
1.379761,0.00005273
1.380761,0.00003306
1.381761,0.00006494
1.382761,0.00004846
1.383761,0.00007418
1.384761,0.00001491
1.385761,0.00004869
1.386761,0.00004072
1.387761,0.00004971
1.388761,0.00008316
1.389761,-0.00000282
1.390761,0.00003550
1.391761,0.00002102
1.392761,0.00003343
1.393761,0.00003221
1.394761,-0.00001298
1.395761,0.00007662
1.396761,0.00006862
1.397761,0.00006593
1.398761,-0.00000570
1.399761,-0.00000414
1.400761,0.00004942
1.401761,0.00007065
1.402761,0.00005101
1.403761,0.00003679
1.404761,0.00004640
1.405761,-0.00001546
1.406761,0.00002830
1.328281,-0.00001214
1.329281,0.00004013
1.330281,0.00003476
1.331281,0.00002988
1.332281,0.00007383
1.333281,0.00004276
1.334281,0.00006689
1.335281,-0.00005058
1.336281,0.00004904
1.337281,0.00004576
1.338281,0.00002484
1.339281,0.00009014
1.340281,-0.00002025
1.341281,0.00003030
1.342281,0.00003954
1.343281,0.00002584
1.344281,0.00001168
1.345281,0.00003427
1.346281,0.00001989
1.347281,0.00005214
1.348281,-0.00000764
1.349281,-0.00004090
1.350281,0.00004164
1.351281,-0.00000014
1.352281,0.00003572
1.353281,0.00000772
1.354281,0.00004778
1.355281,0.00006164
1.356281,0.00003714
1.357281,0.00005613
1.358281,0.00005416
1.359281,-0.00003943
1.360281,0.00002162
1.361281,-0.00000556
1.362281,0.00002909
1.363281,-0.00001100
1.364281,0.00003337
1.365281,-0.00000977
1.366281,0.00004528
1.367281,0.00000549
1.368281,-0.00000013
1.369281,-0.00003286
1.370281,0.00001064
1.371281,0.00001711
1.372281,0.00004838
1.373281,-0.00002761
1.374281,0.00001716
1.375281,-0.00000690
1.376281,0.00001565
1.377281,-0.00004562
1.378281,-0.00002743
1.379281,-0.00002790
1.380281,-0.00007202
1.381281,0.00001218
1.382281,-0.00004942
1.383281,0.00002430
1.384281,0.00000184
1.385281,-0.00003137
1.386281,0.00000117
1.387281,0.00005242
1.388281,-0.00000112
1.389281,-0.00005337
1.390281,-0.00004858
1.391281,-0.00001397
1.392281,0.00000847
1.393281,0.00001022
1.394281,-0.00007624
1.395281,-0.00001076
1.396281,0.00002697
1.397281,-0.00000281
1.398281,0.00005448
1.399281,0.00001040
1.400281,-0.00000157
1.401281,0.00001640
1.402281,-0.00001320
1.403281,-0.00000235
1.404281,0.00001174
1.405281,0.00002258
1.406281,-0.00001655
1.407281,-0.00000244
1.408281,0.00012228
1.409281,-0.00001478
1.410281,0.00001601
1.411281,0.00001312
1.412281,0.00003104
1.413281,-0.00002235
1.414281,-0.00005991
1.415281,0.00004576
1.416281,-0.00004572
1.417281,-0.00005483
1.418281,0.00000034
1.419281,-0.00003443
1.420281,0.00005341
1.421281,-0.00003064
1.422281,-0.00000038
1.423281,0.00002767
1.424281,-0.00000288
1.425281,-0.00002852
1.426281,-0.00002263
1.427281,0.00000588
1.355585,0.00000416
1.356585,0.00001963
1.357585,0.00000297
1.358585,-0.00000426
1.359585,-0.00001608
1.360585,-0.00005866
1.361585,0.00005046
1.362585,-0.00005231
1.363585,0.00001117
1.364585,0.00004209
1.365585,-0.00001085
1.366585,0.00000623
1.367585,-0.00002968
1.368585,0.00004078
1.369585,0.00005846
1.370585,0.00001062
1.371585,0.00003763
1.372585,0.00000297
1.373585,-0.00001807
1.374585,-0.00004759
1.375585,0.00002071
1.376585,-0.00001577
1.377585,0.00001888
1.378585,-0.00000456
1.379585,0.00003950
1.380585,0.00000100
1.381585,-0.00003106
1.382585,0.00001418
1.383585,-0.00003452
1.384585,-0.00003194
1.385585,0.00001239
1.386585,0.00000320
1.387585,-0.00001362
1.388585,0.00000483
1.389585,0.00000000
1.390585,0.00001843
1.391585,-0.00001397
1.392585,-0.00000197
1.393585,-0.00002135
1.394585,0.00001632
1.395585,0.00001096
1.396585,0.00003523
1.397585,0.00003334
1.398585,0.00003709
1.399585,0.00001291
1.400585,0.00004349
1.401585,0.00003728
1.402585,0.00007063
1.403585,0.00009301
1.404585,0.00010020
1.405585,0.00015500
1.406585,0.00020849
1.407585,0.00022093
1.408585,0.00031016
1.409585,0.00031331
1.410585,0.00039159
1.411585,0.00050772
1.412585,0.00058154
1.413585,0.00065063
1.414585,0.00077171
1.415585,0.00086621
1.416585,0.00091698
1.417585,0.00100416
1.418585,0.00106734
1.419585,0.00112770
1.420585,0.00120976
1.421585,0.00121793
1.422585,0.00115659
1.423585,0.00119542
1.424585,0.00117927
1.425585,0.00105266
1.426585,0.00103711
1.427585,0.00091144
1.428585,0.00083343
1.429585,0.00070435
1.430585,0.00063390
1.431585,0.00053904
1.432585,0.00041772
1.433585,0.00029432
1.434585,0.00022618
1.435585,0.00016491
1.436585,0.00005636
1.437585,-0.00002728
1.438585,-0.00008164
1.439585,-0.00007268
1.440585,-0.00019077
1.441585,-0.00017644
1.442585,-0.00021418
1.443585,-0.00020998
1.444585,-0.00021557
1.445585,-0.00024146
1.446585,-0.00028647
1.447585,-0.00030099
1.448585,-0.00028823
1.449585,-0.00028614
1.450585,-0.00022393
1.451585,-0.00021870
1.452585,-0.00024413
1.453585,-0.00022437
1.454585,-0.00025215
1.387099,-0.00018823
1.388099,-0.00016977
1.389099,-0.00019664
1.390099,-0.00008698
1.391099,-0.00009363
1.392099,-0.00010958
1.393099,-0.00013463
1.394099,-0.00005945
1.395099,-0.00006305
1.396099,-0.00002947
1.397099,0.00000149
1.398099,-0.00003823
1.399099,-0.00005821
1.400099,-0.00002722
1.401099,-0.00003510
1.402099,0.00006588
1.403099,0.00003381
1.404099,0.00003740
1.405099,-0.00004185
1.406099,0.00000330
1.407099,0.00001104
1.408099,0.00000435
1.409099,-0.00001513
1.410099,0.00001387
1.411099,0.00000985
1.412099,0.00010144
1.413099,0.00008954
1.414099,0.00003294
1.415099,0.00003641
1.416099,0.00005912
1.417099,0.00009608
1.418099,0.00005411
1.419099,0.00002233
1.420099,0.00006276
1.421099,0.00005663
1.422099,0.00007320
1.423099,0.00005035
1.424099,0.00005446
1.425099,0.00014923
1.426099,0.00010971
1.427099,0.00008692
1.428099,0.00007265
1.429099,0.00005148
1.430099,0.00011314
1.431099,0.00009179
1.432099,0.00005961
1.433099,0.00007633
1.434099,0.00009552
1.435099,0.00008572
1.436099,0.00009418
1.437099,0.00010392
1.438099,0.00006312
1.439099,0.00012181
1.440099,0.00013175
1.441099,0.00007280
1.442099,0.00011215
1.443099,0.00015544
1.444099,0.00012859
1.445099,0.00016753
1.446099,0.00016750
1.447099,0.00013865
1.448099,0.00015756
1.449099,0.00011217
1.450099,0.00017615
1.451099,0.00019974
1.452099,0.00017595
1.453099,0.00009241
1.454099,0.00016338
1.455099,0.00016959
1.456099,0.00019527
1.457099,0.00015022
1.458099,0.00020032
1.459099,0.00019471
1.460099,0.00022226
1.461099,0.00018052
1.462099,0.00018773
1.463099,0.00015807
1.464099,0.00017513
1.465099,0.00022773
1.466099,0.00020991
1.467099,0.00021960
1.468099,0.00018381
1.469099,0.00020087
1.470099,0.00013747
1.471099,0.00022722
1.472099,0.00025201
1.473099,0.00017706
1.474099,0.00019848
1.475099,0.00021803
1.476099,0.00015540
1.477099,0.00018999
1.478099,0.00022295
1.479099,0.00022574
1.480099,0.00017002
1.481099,0.00023907
1.482099,0.00022295
1.483099,0.00018962
1.484099,0.00024616
1.485099,0.00022227
1.486099,0.00024402
1.418489,0.00019050
1.419489,0.00024484
1.420489,0.00017767
1.421489,0.00021525
1.422489,0.00018115
1.423489,0.00021130
1.424489,0.00026178
1.425489,0.00021918
1.426489,0.00019809
1.427489,0.00021335
1.428489,0.00023271
1.429489,0.00022374
1.430489,0.00021580
1.431489,0.00018587
1.432489,0.00017939
1.433489,0.00020703
1.434489,0.00017497
1.435489,0.00018225
1.436489,0.00016171
1.437489,0.00023177
1.438489,0.00014370
1.439489,0.00019669
1.440489,0.00015129
1.441489,0.00020897
1.442489,0.00019246
1.443489,0.00018072
1.444489,0.00018501
1.445489,0.00014776
1.446489,0.00013134
1.447489,0.00019159
1.448489,0.00019958
1.449489,0.00018590
1.450489,0.00019207
1.451489,0.00017078
1.452489,0.00014243
1.453489,0.00015019
1.454489,0.00011503
1.455489,0.00013729
1.456489,0.00014431
1.457489,0.00014499
1.458489,0.00015516
1.459489,0.00013334
1.460489,0.00012972
1.461489,0.00012652
1.462489,0.00008849
1.463489,0.00012402
1.464489,0.00016973
1.465489,0.00009864
1.466489,0.00009616
1.467489,0.00008043
1.468489,0.00015487
1.469489,0.00004683
1.470489,0.00003532
1.471489,0.00014931
1.472489,0.00010320
1.473489,0.00011257
1.474489,0.00007673
1.475489,0.00008709
1.476489,0.00008104
1.477489,0.00009335
1.478489,0.00005256
1.479489,0.00005206
1.480489,0.00010361
1.481489,0.00006765
1.482489,0.00007814
1.483489,0.00004546
1.484489,0.00002664
1.485489,0.00005703
1.486489,0.00007138
1.487489,0.00010241
1.488489,0.00007225
1.489489,0.00002355
1.490489,0.00002334
1.491489,0.00001996
1.492489,0.00006579
1.493489,0.00000994
1.494489,0.00003770
1.495489,-0.00001520
1.496489,0.00008815
1.497489,0.00005024
1.498489,0.00002367
1.499489,-0.00000541
1.500489,0.00001656
1.501489,0.00001148
1.502489,-0.00001537
1.503489,0.00001686
1.504489,0.00006744
1.505489,0.00009390
1.506489,0.00003345
1.507489,0.00000739
1.508489,-0.00001647
1.509489,0.00006192
1.510489,0.00005453
1.511489,0.00001553
1.512489,0.00005926
1.513489,0.00003184
1.514489,-0.00000888
1.515489,0.00000512
1.516489,0.00005514
1.517489,-0.00000422
1.449894,0.00001959
1.450894,-0.00003419
1.451894,-0.00001036
1.452894,0.00001183
1.453894,0.00000431
1.454894,0.00000097
1.455894,-0.00002429
1.456894,0.00000853
1.457894,0.00003159
1.458894,-0.00001894
1.459894,0.00000917
1.460894,0.00003471
1.461894,-0.00000741
1.462894,-0.00004391
1.463894,0.00004929
1.464894,0.00000632
1.465894,0.00002618
1.466894,0.00002422
1.467894,-0.00003981
1.468894,0.00000067
1.469894,0.00000075
1.470894,-0.00000952
1.471894,0.00000769
1.472894,0.00003179
1.473894,-0.00000359
1.474894,0.00004635
1.475894,0.00003023
1.476894,0.00001279
1.477894,0.00000385
1.478894,-0.00000017
1.479894,0.00004705
1.480894,-0.00000051
1.481894,-0.00001517
1.482894,0.00000001
1.483894,-0.00001396
1.484894,0.00000528
1.485894,-0.00000893
1.486894,-0.00004130
1.487894,-0.00000373
1.488894,-0.00000705
1.489894,-0.00000679
1.490894,0.00001535
1.491894,0.00000642
1.492894,0.00002887
1.493894,-0.00001814
1.494894,0.00001873
1.495894,0.00001442
1.496894,-0.00001619
1.497894,-0.00001118
1.498894,0.00001764
1.499894,0.00004647
1.500894,0.00001086
1.501894,0.00003085
1.502894,-0.00001383
1.503894,0.00000611
1.504894,0.00000941
1.505894,0.00002278
1.506894,0.00000433
1.507894,-0.00000634
1.508894,0.00002189
1.509894,0.00002826
1.510894,-0.00002833
1.511894,0.00001731
1.512894,0.00000669
1.513894,-0.00005149
1.514894,0.00000578
1.515894,-0.00001375
1.516894,0.00002388
1.517894,0.00004331
1.518894,0.00002966
1.519894,-0.00001577
1.520894,-0.00000642
1.521894,0.00002896
1.522894,0.00006082
1.523894,0.00004219
1.524894,0.00003873
1.525894,-0.00001949
1.526894,-0.00001835
1.527894,-0.00002370
1.528894,-0.00003614
1.529894,-0.00002152
1.530894,-0.00000249
1.531894,-0.00002623
1.532894,-0.00000889
1.533894,-0.00001643
1.534894,-0.00002169
1.535894,-0.00000127
1.536894,0.00000110
1.537894,0.00001933
1.538894,0.00001834
1.539894,-0.00000248
1.540894,0.00001101
1.541894,0.00005271
1.542894,-0.00004923
1.543894,0.00004800
1.544894,-0.00001743
1.545894,-0.00001090
1.546894,-0.00002759
1.547894,0.00000989
1.548894,0.00002361
1.481480,-0.00004062
1.482480,0.00001019
1.483480,-0.00002893
1.484480,-0.00001558
1.485480,0.00002822
1.486480,0.00000413
1.487480,0.00000105
1.488480,0.00005780
1.489480,-0.00001263
1.490480,-0.00000985
1.491480,0.00003322
1.492480,-0.00000766
1.493480,-0.00003991
1.494480,-0.00003164
1.495480,-0.00003084
1.496480,-0.00001985
1.497480,-0.00004877
1.498480,-0.00005290
1.499480,-0.00000195
1.500480,-0.00000465
1.501480,-0.00000253
1.502480,0.00004395
1.503480,0.00001270
1.504480,0.00001063
1.505480,0.00000579
1.506480,0.00001471
1.507480,-0.00000559
1.508480,-0.00000972
1.509480,-0.00001167
1.510480,-0.00001808
1.511480,0.00000214
1.512480,-0.00000481
1.513480,-0.00002248
1.514480,-0.00002139
1.515480,0.00000463
1.516480,-0.00000132
1.517480,0.00005358
1.518480,-0.00000741
1.519480,-0.00001163
1.520480,-0.00001264
1.521480,-0.00002210
1.522480,-0.00000369
1.523480,-0.00000745
1.524480,0.00008483
1.525480,0.00003925
1.526480,-0.00007060
1.527480,0.00004877
1.528480,0.00008931
1.529480,0.00001304
1.530480,-0.00002208
1.531480,-0.00002405
1.532480,-0.00004209
1.533480,-0.00005182
1.534480,-0.00006439
1.535480,-0.00001817
1.536480,-0.00001247
1.537480,0.00000401
1.538480,0.00001445
1.539480,0.00000236
1.540480,0.00002849
1.541480,-0.00005987
1.542480,0.00007343
1.543480,-0.00000529
1.544480,-0.00001070
1.545480,0.00004158
1.546480,0.00001819
1.547480,-0.00001870
1.548480,0.00002481
1.549480,-0.00003601
1.550480,-0.00002066
1.551480,0.00005403
1.552480,-0.00003758
1.553480,-0.00000132
1.554480,-0.00006146
1.555480,-0.00000027
1.556480,-0.00000781
1.557480,0.00003745
1.558480,0.00000081
1.559480,-0.00002365
1.560480,0.00005403
1.561480,-0.00003056
1.562480,-0.00003690
1.563480,0.00002211
1.564480,0.00005441
1.565480,-0.00004606
1.566480,-0.00001454
1.567480,-0.00003971
1.568480,-0.00003636
1.569480,-0.00004490
1.570480,-0.00001570
1.571480,0.00000163
1.572480,-0.00002433
1.573480,0.00001538
1.574480,-0.00003910
1.575480,0.00000419
1.576480,0.00001588
1.577480,-0.00003769
1.578480,-0.00001332
1.579480,-0.00006873
1.580480,-0.00001720
1.513457,0.00001739
1.514457,0.00000197
1.515457,0.00000861
1.516457,-0.00002404
1.517457,0.00007439
1.518457,-0.00000311
1.519457,0.00002851
1.520457,-0.00000391
1.521457,0.00002596
1.522457,0.00001922
1.523457,-0.00001400
1.524457,-0.00008651
1.525457,-0.00000740
1.526457,0.00003221
1.527457,-0.00005361
1.528457,0.00001268
1.529457,-0.00001817
1.530457,-0.00001619
1.531457,0.00000304
1.532457,0.00004929
1.533457,0.00000469
1.534457,-0.00000823
1.535457,0.00002260
1.536457,0.00006985
1.537457,-0.00004672
1.538457,-0.00003666
1.539457,0.00000575
1.540457,0.00004141
1.541457,-0.00005523
1.542457,0.00000914
1.543457,0.00000984
1.544457,0.00001760
1.545457,-0.00000576
1.546457,0.00000981
1.547457,-0.00000698
1.548457,0.00000545
1.549457,0.00003948
1.550457,0.00000797
1.551457,0.00002052
1.552457,-0.00003139
1.553457,0.00002815
1.554457,0.00005139
1.555457,0.00001239
1.556457,-0.00008462
1.557457,0.00002995
1.558457,-0.00002611
1.559457,0.00000812
1.560457,-0.00001700
1.561457,0.00003663
1.562457,0.00004429
1.563457,-0.00003028
1.564457,-0.00005109
1.565457,-0.00000466
1.566457,-0.00001425
1.567457,0.00003144
1.568457,-0.00001352
1.569457,-0.00000340
1.570457,-0.00000585
1.571457,0.00004690
1.572457,0.00006852
1.573457,-0.00001725
1.574457,0.00001981
1.575457,0.00000123
1.576457,-0.00001759
1.577457,-0.00006520
1.578457,-0.00004604
1.579457,-0.00004831
1.580457,0.00001851
1.581457,0.00001332
1.582457,0.00001986
1.583457,0.00004535
1.584457,0.00003042
1.585457,0.00001882
1.586457,-0.00000344
1.587457,0.00001473
1.588457,-0.00004400
1.589457,0.00000753
1.590457,0.00003534
1.591457,-0.00000126
1.592457,-0.00001006
1.593457,0.00006057
1.594457,0.00001571
1.595457,-0.00001804
1.596457,-0.00000353
1.597457,0.00000133
1.598457,0.00001931
1.599457,0.00000976
1.600457,0.00002962
1.601457,0.00001155
1.602457,0.00002450
1.603457,0.00000372
1.604457,0.00000555
1.605457,0.00000475
1.606457,0.00000899
1.607457,0.00001587
1.608457,-0.00000895
1.609457,-0.00002907
1.610457,0.00000024
1.611457,0.00005040
1.612457,-0.00000598
1.545222,-0.00001348
1.546222,-0.00000688
1.547222,-0.00000176
1.548222,0.00001314
1.549222,0.00002716
1.550222,-0.00000689
1.551222,0.00000066
1.552222,0.00003045
1.553222,-0.00005116
1.554222,-0.00002124
1.555222,0.00001362
1.556222,0.00000879
1.557222,-0.00001186
1.558222,0.00000365
1.559222,-0.00001998
1.560222,0.00002307
1.561222,0.00005388
1.562222,0.00002264
1.563222,0.00005662
1.564222,0.00000536
1.565222,0.00002176
1.566222,0.00003168
1.567222,-0.00001705
1.568222,-0.00001824
1.569222,-0.00001252
1.570222,-0.00001508
1.571222,0.00001271
1.572222,0.00000271
1.573222,0.00000225
1.574222,0.00005241
1.575222,0.00003583
1.576222,-0.00003470
1.577222,0.00003747
1.578222,0.00002751
1.579222,0.00000542
1.580222,0.00002029
1.581222,0.00005725
1.582222,0.00003564
1.583222,0.00002038
1.584222,0.00001432
1.585222,0.00004604
1.586222,0.00005930
1.587222,0.00002303
1.588222,0.00007856
1.589222,0.00007191
1.590222,0.00006948
1.591222,0.00005038
1.592222,0.00006654
1.593222,0.00004337
1.594222,-0.00002223
1.595222,0.00003601
1.596222,0.00006822
1.597222,0.00003393
1.598222,0.00006272
1.599222,0.00008272
1.600222,0.00005972
1.601222,0.00014605
1.602222,0.00009678
1.603222,0.00009191
1.604222,0.00007746
1.605222,0.00007845
1.606222,0.00008983
1.607222,0.00003293
1.608222,0.00008813
1.609222,0.00003709
1.610222,0.00002867
1.611222,0.00008269
1.612222,0.00007123
1.613222,0.00006670
1.614222,0.00003830
1.615222,0.00003481
1.616222,0.00010099
1.617222,0.00012716
1.618222,0.00004721
1.619222,0.00004889
1.620222,0.00008171
1.621222,0.00005374
1.622222,-0.00000939
1.623222,0.00006083
1.624222,0.00010472
1.625222,0.00014088
1.626222,0.00005052
1.627222,0.00008584
1.628222,0.00006182
1.629222,0.00005687
1.630222,0.00001246
1.631222,0.00004440
1.632222,0.00008629
1.633222,0.00009310
1.634222,-0.00000993
1.635222,0.00011987
1.636222,0.00005510
1.637222,0.00008578
1.638222,0.00005081
1.639222,0.00002940
1.640222,0.00007104
1.641222,0.00003863
1.642222,0.00006763
1.643222,0.00006580
1.644222,0.00005985
1.576618,0.00006901
1.577618,0.00004413
1.578618,0.00009219
1.579618,0.00008583
1.580618,0.00012024
1.581618,0.00007049
1.582618,0.00012630
1.583618,0.00012104
1.584618,0.00011160
1.585618,0.00007634
1.586618,0.00004982
1.587618,0.00004307
1.588618,0.00004495
1.589618,0.00001921
1.590618,0.00001043
1.591618,0.00000595
1.592618,0.00005812
1.593618,0.00004831
1.594618,0.00001449
1.595618,0.00000555
1.596618,0.00001315
1.597618,0.00001733
1.598618,0.00006010
1.599618,0.00001897
1.600618,0.00007491
1.601618,0.00005970
1.602618,0.00000269
1.603618,0.00000142
1.604618,0.00002907
1.605618,0.00003619
1.606618,-0.00002044
1.607618,0.00006883
1.608618,-0.00001074
1.609618,-0.00002193
1.610618,0.00010175
1.611618,0.00001360
1.612618,0.00001311
1.613618,0.00000390
1.614618,-0.00003167
1.615618,0.00004163
1.616618,0.00003135
1.617618,0.00006103
1.618618,0.00005440
1.619618,0.00007386
1.620618,0.00000347
1.621618,0.00002220
1.622618,0.00000808
1.623618,0.00000353
1.624618,0.00000502
1.625618,0.00000747
1.626618,0.00001015
1.627618,-0.00001386
1.628618,0.00005295
1.629618,0.00000319
1.630618,0.00007376
1.631618,-0.00000053
1.632618,-0.00000281
1.633618,-0.00001636
1.634618,0.00000138
1.635618,0.00000512
1.636618,0.00001555
1.637618,-0.00000848
1.638618,-0.00002539
1.639618,-0.00001931
1.640618,-0.00000024
1.641618,0.00003186
1.642618,0.00000802
1.643618,-0.00002357
1.644618,-0.00003534
1.645618,0.00000408
1.646618,0.00001008
1.647618,0.00001111
1.648618,0.00000557
1.649618,0.00003725
1.650618,0.00002938
1.651618,-0.00000901
1.652618,-0.00000343
1.653618,0.00001207
1.654618,0.00001923
1.655618,-0.00004145
1.656618,0.00000579
1.657618,-0.00001315
1.658618,-0.00001898
1.659618,0.00002479
1.660618,0.00000654
1.661618,-0.00001373
1.662618,0.00003991
1.663618,0.00000708
1.664618,-0.00005119
1.665618,-0.00002311
1.666618,-0.00005691
1.667618,-0.00003877
1.668618,0.00005505
1.669618,0.00000860
1.670618,-0.00003438
1.671618,-0.00000746
1.672618,0.00001829
1.673618,-0.00006567
1.674618,-0.00001481
1.675618,0.00005341
1.608252,0.00002579
1.609252,0.00002713
1.610252,0.00004955
1.611252,0.00001884
1.612252,-0.00005304
1.613252,-0.00000172
1.614252,-0.00003919
1.615252,-0.00001719
1.616252,0.00002135
1.617252,0.00000985
1.618252,0.00000345
1.619252,0.00000402
1.620252,-0.00003815
1.621252,-0.00002688
1.622252,-0.00001241
1.623252,0.00002834
1.624252,0.00004622
1.625252,0.00002061
1.626252,0.00000339
1.627252,-0.00002642
1.628252,-0.00004673
1.629252,-0.00002630
1.630252,0.00004858
1.631252,0.00000829
1.632252,-0.00004683
1.633252,-0.00002467
1.634252,0.00001666
1.635252,0.00004362
1.636252,0.00003526
1.637252,-0.00001687
1.638252,-0.00002292
1.639252,0.00000120
1.640252,0.00002685
1.641252,-0.00000812
1.642252,0.00002142
1.643252,0.00002507
1.644252,0.00000368
1.645252,-0.00001422
1.646252,-0.00000069
1.647252,-0.00004652
1.648252,-0.00001915
1.649252,0.00002235
1.650252,-0.00000243
1.651252,-0.00001883
1.652252,-0.00002716
1.653252,-0.00008449
1.654252,-0.00001178
1.655252,0.00001840
1.656252,-0.00003628
1.657252,0.00006330
1.658252,-0.00002593
1.659252,-0.00002676
1.660252,-0.00001495
1.661252,0.00004999
1.662252,0.00000469
1.663252,-0.00001448
1.664252,-0.00000735
1.665252,0.00001804
1.666252,-0.00001088
1.667252,-0.00000953
1.668252,0.00002753
1.669252,-0.00000363
1.670252,-0.00005218
1.671252,0.00000288
1.672252,0.00001077
1.673252,0.00002293
1.674252,-0.00001652
1.675252,0.00003524
1.676252,-0.00002445
1.677252,-0.00000984
1.678252,0.00003991
1.679252,0.00005226
1.680252,0.00005912
1.681252,-0.00001975
1.682252,0.00001663
1.683252,-0.00002418
1.684252,0.00001521
1.685252,-0.00001429
1.686252,0.00004929
1.687252,0.00006706
1.688252,0.00002722
1.689252,0.00010024
1.690252,0.00006845
1.691252,0.00016811
1.692252,0.00014974
1.693252,0.00022543
1.694252,0.00026860
1.695252,0.00033021
1.696252,0.00035499
1.697252,0.00041248
1.698252,0.00058208
1.699252,0.00072325
1.700252,0.00069806
1.701252,0.00080134
1.702252,0.00089191
1.703252,0.00099463
1.704252,0.00109871
1.705252,0.00115647
1.706252,0.00112780
1.707252,0.00114730
1.639466,0.00117987
1.640466,0.00117252
1.641466,0.00112312
1.642466,0.00109256
1.643466,0.00100224
1.644466,0.00098341
1.645466,0.00085334
1.646466,0.00074685
1.647466,0.00066039
1.648466,0.00053928
1.649466,0.00046724
1.650466,0.00033321
1.651466,0.00019913
1.652466,0.00019347
1.653466,0.00011955
1.654466,0.00008372
1.655466,0.00000615
1.656466,-0.00008189
1.657466,-0.00007431
1.658466,-0.00014291
1.659466,-0.00022737
1.660466,-0.00020716
1.661466,-0.00024167
1.662466,-0.00026707
1.663466,-0.00022344
1.664466,-0.00030468
1.665466,-0.00029843
1.666466,-0.00028019
1.667466,-0.00017358
1.668466,-0.00025738
1.669466,-0.00020766
1.670466,-0.00024668
1.671466,-0.00016471
1.672466,-0.00021299
1.673466,-0.00020063
1.674466,-0.00019873
1.675466,-0.00008958
1.676466,-0.00009512
1.677466,-0.00014645
1.678466,-0.00010110
1.679466,-0.00014491
1.680466,-0.00004606
1.681466,-0.00006812
1.682466,-0.00004516
1.683466,-0.00003046
1.684466,-0.00000544
1.685466,0.00000788
1.686466,-0.00001053
1.687466,-0.00000911
1.688466,-0.00001602
1.689466,0.00004754
1.690466,0.00000793
1.691466,0.00002918
1.692466,0.00000799
1.693466,0.00003703
1.694466,0.00006371
1.695466,0.00003254
1.696466,0.00008257
1.697466,0.00011735
1.698466,-0.00002338
1.699466,0.00008478
1.700466,0.00008736
1.701466,0.00001159
1.702466,0.00005681
1.703466,0.00004135
1.704466,-0.00005720
1.705466,0.00004250
1.706466,0.00008812
1.707466,0.00006747
1.708466,0.00007242
1.709466,0.00004690
1.710466,0.00002785
1.711466,0.00008934
1.712466,0.00002401
1.713466,0.00004126
1.714466,0.00009176
1.715466,0.00003345
1.716466,0.00009727
1.717466,0.00002805
1.718466,0.00020523
1.719466,0.00013107
1.720466,0.00008843
1.721466,0.00011309
1.722466,0.00007991
1.723466,0.00010831
1.724466,0.00008912
1.725466,0.00018652
1.726466,0.00006013
1.727466,0.00017401
1.728466,0.00011349
1.729466,0.00014898
1.730466,0.00016575
1.731466,0.00010935
1.732466,0.00014275
1.733466,0.00017790
1.734466,0.00017199
1.735466,0.00012707
1.736466,0.00014317
1.737466,0.00014332
1.738466,0.00015679
1.670872,0.00016373
1.671872,0.00017959
1.672872,0.00014931
1.673872,0.00014993
1.674872,0.00017159
1.675872,0.00017226
1.676872,0.00020305
1.677872,0.00018822
1.678872,0.00021819
1.679872,0.00019818
1.680872,0.00022349
1.681872,0.00018287
1.682872,0.00015873
1.683872,0.00020441
1.684872,0.00020745
1.685872,0.00020378
1.686872,0.00026201
1.687872,0.00019976
1.688872,0.00016639
1.689872,0.00017569
1.690872,0.00023621
1.691872,0.00023826
1.692872,0.00015895
1.693872,0.00023122
1.694872,0.00013784
1.695872,0.00023674
1.696872,0.00019044
1.697872,0.00018269
1.698872,0.00018069
1.699872,0.00024089
1.700872,0.00024398
1.701872,0.00026732
1.702872,0.00020387
1.703872,0.00018530
1.704872,0.00024090
1.705872,0.00022783
1.706872,0.00021725
1.707872,0.00017830
1.708872,0.00021089
1.709872,0.00022753
1.710872,0.00023401
1.711872,0.00020711
1.712872,0.00021085
1.713872,0.00027963
1.714872,0.00023209
1.715872,0.00023382
1.716872,0.00021307
1.717872,0.00019089
1.718872,0.00020422
1.719872,0.00022441
1.720872,0.00016393
1.721872,0.00018290
1.722872,0.00018821
1.723872,0.00020007
1.724872,0.00021189
1.725872,0.00015731
1.726872,0.00019423
1.727872,0.00017788
1.728872,0.00020862
1.729872,0.00018842
1.730872,0.00020052
1.731872,0.00018072
1.732872,0.00015650
1.733872,0.00018119
1.734872,0.00016039
1.735872,0.00015020
1.736872,0.00015642
1.737872,0.00016765
1.738872,0.00016499
1.739872,0.00011057
1.740872,0.00013888
1.741872,0.00013795
1.742872,0.00018865
1.743872,0.00017115
1.744872,0.00015887
1.745872,0.00014701
1.746872,0.00009595
1.747872,0.00010298
1.748872,0.00012325
1.749872,0.00014206
1.750872,0.00011924
1.751872,0.00012507
1.752872,0.00012043
1.753872,0.00009459
1.754872,0.00012303
1.755872,0.00009345
1.756872,0.00004316
1.757872,0.00009987
1.758872,0.00010985
1.759872,0.00012086
1.760872,0.00005240
1.761872,0.00009437
1.762872,0.00005774
1.763872,0.00005593
1.764872,0.00013762
1.765872,0.00008426
1.766872,0.00001958
1.767872,0.00004524
1.768872,0.00009310
1.769872,0.00002253
1.702723,0.00002248
1.703723,0.00010805
1.704723,0.00000515
1.705723,0.00003989
1.706723,0.00004981
1.707723,0.00005455
1.708723,0.00006854
1.709723,0.00005925
1.710723,0.00007848
1.711723,0.00001527
1.712723,0.00006554
1.713723,-0.00000551
1.714723,0.00003432
1.715723,0.00003141
1.716723,0.00003655
1.717723,-0.00001028
1.718723,-0.00001318
1.719723,0.00002111
1.720723,0.00004522
1.721723,0.00007949
1.722723,0.00004662
1.723723,0.00003165
1.724723,0.00002146
1.725723,0.00003601
1.726723,0.00001868
1.727723,0.00003626
1.728723,0.00001282
1.729723,0.00005493
1.730723,0.00004053
1.731723,-0.00001074
1.732723,0.00005067
1.733723,-0.00000472
1.734723,-0.00003962
1.735723,0.00003781
1.736723,0.00000546
1.737723,0.00001895
1.738723,0.00000490
1.739723,-0.00003517
1.740723,0.00001890
1.741723,-0.00005239
1.742723,-0.00005654
1.743723,0.00001376
1.744723,-0.00000825
1.745723,0.00002904
1.746723,-0.00004842
1.747723,0.00005437
1.748723,0.00000530
1.749723,-0.00000921
1.750723,0.00002397
1.751723,0.00002245
1.752723,-0.00001421
1.753723,-0.00001395
1.754723,-0.00002502
1.755723,0.00005224
1.756723,-0.00005594
1.757723,0.00005371
1.758723,-0.00000315
1.759723,-0.00000419
1.760723,0.00001022
1.761723,-0.00000491
1.762723,0.00001966
1.763723,0.00000556
1.764723,0.00005121
1.765723,0.00001027
1.766723,0.00000972
1.767723,0.00000371
1.768723,0.00002662
1.769723,-0.00002673
1.770723,0.00001766
1.771723,-0.00004369
1.772723,0.00001171
1.773723,-0.00000461
1.774723,-0.00003162
1.775723,-0.00002571
1.776723,0.00002176
1.777723,0.00001602
1.778723,0.00002641
1.779723,0.00000596
1.780723,-0.00006556
1.781723,0.00003131
1.782723,-0.00000683
1.783723,-0.00002741
1.784723,-0.00000074
1.785723,0.00006485
1.786723,0.00000129
1.787723,0.00001070
1.788723,0.00000010
1.789723,0.00000707
1.790723,0.00003648
1.791723,0.00000034
1.792723,0.00003283
1.793723,0.00006424
1.794723,-0.00004065
1.795723,-0.00002414
1.796723,-0.00003378
1.797723,0.00006057
1.798723,-0.00002764
1.799723,0.00006640
1.800723,0.00001220
1.801723,-0.00006656
1.734851,0.00000738
1.735851,-0.00002019
1.736851,-0.00002891
1.737851,-0.00002589
1.738851,-0.00003099
1.739851,0.00004085
1.740851,-0.00000535
1.741851,0.00001203
1.742851,0.00002893
1.743851,0.00003178
1.744851,-0.00004803
1.745851,-0.00000637
1.746851,-0.00003938
1.747851,-0.00002636
1.748851,-0.00000282
1.749851,0.00007465
1.750851,0.00003981
1.751851,0.00001499
1.752851,0.00001003
1.753851,0.00002640
1.754851,-0.00001282
1.755851,0.00001398
1.756851,0.00001723
1.757851,0.00000724
1.758851,-0.00001626
1.759851,0.00002692
1.760851,0.00006405
1.761851,0.00002424
1.762851,0.00001264
1.763851,-0.00003583
1.764851,0.00007596
1.765851,0.00006082
1.766851,-0.00000514
1.767851,-0.00000651
1.768851,-0.00001352
1.769851,0.00002480
1.770851,0.00001389
1.771851,0.00003955
1.772851,0.00003203
1.773851,-0.00003074
1.774851,-0.00004080
1.775851,0.00005669
1.776851,0.00003017
1.777851,0.00001300
1.778851,0.00006357
1.779851,0.00001708
1.780851,-0.00001156
1.781851,-0.00001521
1.782851,-0.00002037
1.783851,0.00001594
1.784851,0.00002962
1.785851,-0.00001912
1.786851,-0.00000308
1.787851,0.00001408
1.788851,-0.00001696
1.789851,-0.00002017
1.790851,0.00001092
1.791851,-0.00001787
1.792851,-0.00002840
1.793851,0.00000929
1.794851,0.00002753
1.795851,0.00004286
1.796851,0.00000423
1.797851,0.00007078
1.798851,0.00004355
1.799851,-0.00000257
1.800851,-0.00001234
1.801851,0.00001383
1.802851,0.00003161
1.803851,-0.00000764
1.804851,-0.00000409
1.805851,-0.00003568
1.806851,0.00000250
1.807851,0.00002563
1.808851,0.00001906
1.809851,-0.00004900
1.810851,0.00001589
1.811851,-0.00000089
1.812851,0.00002903
1.813851,-0.00001745
1.814851,0.00000342
1.815851,-0.00002316
1.816851,-0.00001116
1.817851,0.00000016
1.818851,0.00000062
1.819851,-0.00000371
1.820851,0.00000011
1.821851,-0.00000036
1.822851,0.00002003
1.823851,0.00005659
1.824851,-0.00000563
1.825851,-0.00004794
1.826851,-0.00005431
1.827851,-0.00009899
1.828851,0.00006069
